1556891066.00
64.000000
-0.00
-0.00
-0.00
-0.00
-0.00
-0.00
-0.00
-0.00
-0.00
-0.00
0.00
0.01
0.01
-0.00
-0.03
-0.05
-0.05
0.00
0.13
0.36
0.66
1.01
1.37
1.72
2.06
2.40
2.79
3.24
3.80
4.42
5.06
5.66
6.20
6.68
7.15
7.68
8.31
9.14
10.09
11.04
11.88
12.56
13.14
13.76
14.65
15.96
17.91
20.32
22.90
25.38
27.58
29.57
31.68
34.32
37.81
42.54
48.15
54.10
59.83
64.97
69.58
74.14
79.34
85.71
93.76
103.00
112.62
121.73
129.77
136.75
143.30
150.75
157.77
166.64
177.95
191.79
206.97
220.57
228.25
225.36
208.53
176.87
132.76
80.05
23.07
-34.94
-92.44
-149.16
-205.23
-260.37
-313.73
-363.86
-409.81
-450.86
-486.44
-515.65
-537.11
-549.07
-549.76
-538.12
-513.91
-478.32
-433.47
-381.98
-326.48
-269.23
-211.95
-155.90
-102.11
-51.45
-4.88
36.70
72.65
102.70
126.97
145.99
160.45
171.07
178.48
183.06
185.11
184.86
182.57
178.60
173.36
167.26
160.64
153.75
146.74
139.69
132.62
125.59
118.66
111.90
105.38
99.15
93.25
87.69
82.48
77.62
73.13
69.01
65.28
61.95
59.01
56.45
54.26
52.42
50.89
49.60
48.47
47.39
46.23
44.84
43.11
40.89
38.08
34.62
30.52
25.82
20.58
14.95
9.09
3.17
-2.60
-8.07
-13.09
-17.55
-21.38
-24.55
-27.02
-28.83
-30.01
-30.61
-30.68
-30.25
-29.37
-28.05
-26.30
-24.11
-21.46
-18.34
-14.75
-10.69
-6.19
-1.32
3.82
9.10
14.38
19.50
24.25
28.54
32.27
35.45
38.18
40.59
42.91
45.41
48.24
51.62
55.71
60.69
66.67
73.76
81.99
91.42
102.07
113.76
126.32
139.58
153.39
167.52
181.82
196.07
210.11
223.75
236.56
248.16
258.15
266.17
271.80
274.61
274.03
269.32
261.39
250.60
237.30
221.80
204.53
185.86
166.25
146.09
125.73
105.54
85.53
65.74
46.16
26.79
7.60
-11.46
-30.40
-49.21
-67.82
-86.35
-104.74
-122.84
-140.35
-156.74
-171.35
-183.50
-192.54
-198.02
-199.84
-198.15
-193.25
-185.60
-175.71
-164.15
-151.47
-138.35
-125.48
-113.68
-103.65
-95.92
-90.74
-88.07
-87.61
-88.97
-91.78
-95.76
-100.82
-107.00
-114.47
-123.31
-133.38
-144.45
-155.85
-166.83
-176.63
-184.84
-191.72
-198.55
-207.37
-220.01
-236.63
-254.60
-269.07
-274.60
-267.96
-249.85
-224.86
-199.56
-179.34
-166.68
-160.89
-159.68
-160.40
-160.71
-157.87
-148.65
-130.65
-104.54
-75.87
-53.99
-48.56
-64.31
-97.90
-138.61
-172.23
-186.80
-176.70
-144.27
-97.91
-48.63
-6.18
23.43
38.52
41.23
35.41
25.46
15.40
9.02
9.96
20.37
39.62
63.34
84.44
96.19
95.81
86.00
73.83
67.10
70.58
84.47
105.43
128.94
150.89
167.85
176.88
175.76
164.39
145.88
126.55
113.70
112.29
122.66
140.69
159.75
173.70
178.93
174.41
160.99
140.52
115.73
90.57
69.56
56.10
50.06
46.34
35.77
8.97
-38.97
-105.03
-178.44
-244.91
-292.38
-315.65
-317.49
-305.80
-288.94
-271.90
-254.87
-234.22
-204.95
-163.04
-107.19
-39.79
33.29
103.96
163.87
206.99
231.58
240.41
239.27
234.13
228.65
223.34
216.36
205.44
189.44
168.86
144.79
117.89
88.25
56.41
24.67
-2.82
-21.30
-28.08
-24.74
-17.40
-14.27
-21.76
-41.33
-68.43
-94.67
-111.44
-113.91
-102.82
-83.98
-65.41
-53.60
-50.99
-55.05
-60.27
-61.20
-55.37
-44.36
-32.19
-22.48
-16.24
-12.11
-8.46
-6.10
-8.80
-20.91
-43.11
-69.56
-89.32
-91.13
-69.84
-29.69
16.92
55.27
74.99
73.99
58.13
37.28
20.85
14.24
18.05
28.55
39.03
41.98
31.36
5.35
-32.27
-72.64
-105.40
-123.12
-124.73
-115.73
-104.21
-96.38
-93.57
-93.06
-91.13
-86.44
-80.84
-77.10
-77.07
-79.42
-80.94
-78.89
-73.11
-66.27
-62.45
-65.62
-78.55
-103.81
-142.41
-193.52
-253.15
-314.03
-367.14
-404.55
-421.90
-418.84
-398.94
-366.24
-324.31
-276.50
-227.06
-181.48
-145.12
-120.84
-99.14
-69.56
-22.60
45.04
127.89
214.26
291.71
351.86
391.83
413.23
418.71
411.66
395.21
372.37
346.03
318.62
292.11
267.33
243.97
219.78
192.63
162.03
130.58
104.08
89.57
92.02
111.27
141.46
172.53
194.90
203.21
197.67
182.88
164.65
147.17
131.82
118.07
104.84
92.00
80.42
71.09
64.22
59.03
54.16
48.28
40.96
32.67
24.61
18.09
13.89
11.87
11.14
10.42
8.68
5.60
1.58
-2.48
-5.57
-7.15
-7.28
-6.60
-5.90
-5.86
-6.69
-7.75
-8.89
-9.66
-9.77
-9.25
-8.35
-7.45
-6.82
-6.54
-6.54
-6.69
-6.74
-6.58
-6.19
-5.64
-5.03
-4.45
-3.90
-3.39
-2.95
-2.51
-2.06
-1.59
-1.11
-0.64
-0.16
0.33
0.83
1.31
1.78
2.27
2.79
3.35
3.95
4.59
5.28
6.02
6.74
7.45
8.13
8.81
9.48
10.08
10.56
10.83
10.76
10.18
9.02
7.23
4.86
2.28
-0.61
-3.67
-6.77
-9.83
-12.77
-15.48
-17.84
-19.63
-20.69
-20.95
-20.39
-19.19
-17.67
-16.17
-14.89
-13.85
-12.84
-11.54
-9.70
-7.22
-4.32
-1.43
0.96
2.55
3.40
3.93
4.74
6.31
8.82
11.96
15.08
17.57
19.01
19.49
19.55
19.90
21.28
24.25
29.17
35.95
43.74
50.75
54.51
52.62
43.77
28.64
9.85
-8.77
-23.68
-32.94
-36.70
-36.67
-35.07
-33.47
-32.37
-31.44
-30.15
-28.29
-26.12
-24.08
-22.44
-21.07
-19.54
-17.21
-14.00
-10.32
-6.91
-4.60
-3.92
-4.90
-7.11
-9.76
-12.12
-13.80
-14.81
-15.55
-16.52
-18.03
-19.99
-21.97
-23.48
-24.18
-24.14
-23.58
-22.79
-22.01
-21.48
-21.52
-22.55
-24.91
-28.48
-32.63
-36.12
-37.49
-35.52
-29.62
-19.99
-7.72
5.58
18.12
28.34
35.39
39.18
40.30
39.57
37.68
35.02
31.74
28.10
24.53
21.58
19.59
18.49
17.86
17.18
16.11
14.70
13.20
11.96
11.05
10.36
9.65
8.74
7.54
6.10
4.56
3.04
1.58
0.18
-1.28
-2.89
-4.71
-6.63
-8.41
-9.82
-10.70
-11.13
-11.46
-12.04
-13.15
-14.88
-17.09
-19.44
-21.50
-22.78
-22.79
-21.23
-18.03
-13.42
-7.96
-2.25
3.09
7.63
11.04
13.07
13.65
12.92
11.35
9.69
8.64
8.59
9.37
10.46
11.22
11.36
11.04
10.55
10.21
9.96
9.41
8.19
6.22
3.81
1.60
0.17
-0.30
-0.14
0.02
-0.45
-1.76
-3.64
-5.51
-6.77
-7.26
-7.27
-7.45
-8.44
-10.58
-13.61
-16.81
-19.24
-19.95
-18.44
-14.86
-9.84
-4.40
0.56
4.58
7.60
9.93
11.83
13.39
14.44
14.79
14.36
13.33
12.00
10.61
9.26
7.88
6.42
4.82
3.26
1.91
0.97
0.50
0.47
0.61
0.55
-0.16
-1.81
-4.33
-7.32
-10.07
-11.82
-12.06
-10.72
-8.21
-5.30
-2.89
-1.78
-2.49
-5.03
-8.94
-13.28
-16.90
-18.74
-18.11
-14.90
-9.64
-3.30
2.97
8.26
12.01
14.20
15.17
15.44
15.38
15.11
14.47
13.17
11.04
8.16
4.99
2.19
0.32
-0.35
0.02
0.94
1.75
1.97
1.41
0.18
-1.40
-3.04
-4.66
-6.21
-7.80
-9.38
-10.81
-11.94
-12.67
-13.16
-13.74
-14.88
-16.92
-19.87
-23.23
-26.06
-27.22
-25.87
-21.87
-15.84
-9.00
-2.59
2.66
6.64
9.70
12.19
14.11
15.16
14.98
13.65
11.72
9.92
8.79
8.26
7.79
6.79
5.04
2.85
0.97
-0.01
0.13
0.97
1.87
2.17
1.61
0.31
-1.32
-2.91
-4.19
-5.02
-5.29
-4.82
-3.60
-1.94
-0.67
-0.94
-3.76
-9.39
-17.11
-25.39
-32.49
-37.09
-38.66
-37.39
-33.84
-28.66
-22.36
-15.46
-8.50
-2.03
3.53
8.08
11.85
15.19
18.42
21.58
24.58
27.16
29.07
29.88
29.13
26.49
22.05
16.47
10.89
6.40
3.61
2.27
1.59
0.63
-1.10
-3.43
-5.74
-7.46
-8.46
-8.99
-9.60
-10.53
-11.56
-12.06
-11.26
-8.59
-3.95
2.23
8.97
15.06
19.39
21.35
21.05
19.31
17.33
16.17
16.35
17.69
19.53
21.09
21.89
21.84
21.23
20.42
19.65
18.93
18.14
17.25
16.35
15.58
15.00
14.47
13.61
12.08
9.75
6.85
3.78
0.91
-1.72
-4.39
-7.57
-11.51
-16.12
-20.99
-25.57
-29.48
-32.51
-34.60
-35.58
-35.06
-32.50
-27.39
-19.71
-10.05
0.28
9.62
16.47
19.97
20.19
18.14
15.21
12.59
10.89
10.15
10.06
10.39
11.05
11.99
12.96
13.53
13.17
11.60
8.94
5.68
2.50
-0.13
-2.01
-3.33
-4.44
-5.67
-7.16
-8.84
-10.46
-11.68
-12.30
-12.39
-12.39
-12.91
-14.42
-16.91
-19.79
-22.06
-22.71
-21.18
-17.52
-12.37
-6.62
-1.11
3.61
7.43
10.44
12.84
14.70
15.98
16.60
16.64
16.31
15.90
15.57
15.22
14.56
13.28
11.29
8.83
6.37
4.36
3.04
2.31
1.93
1.67
1.45
1.34
1.38
1.45
1.32
0.71
-0.52
-2.39
-4.78
-7.57
-10.70
-14.07
-17.40
-20.18
-21.71
-21.42
-19.04
-14.85
-9.54
-3.99
0.98
4.85
7.44
8.87
9.44
9.55
9.56
9.69
9.93
10.00
9.55
8.27
6.18
3.62
1.17
-0.64
-1.53
-1.56
-1.08
-0.53
-0.30
-0.59
-1.42
-2.63
-3.85
-4.71
-4.97
-4.75
-4.50
-4.96
-6.69
-9.86
-14.09
-18.64
-22.59
-25.09
-25.45
-23.12
-17.81
-9.73
0.20
10.33
18.69
23.65
24.59
22.07
17.53
12.61
8.45
5.36
3.08
1.18
-0.52
-1.83
-2.42
-2.10
-1.01
0.34
1.34
1.61
1.14
0.22
-0.71
-1.35
-1.72
-2.06
-2.73
-3.98
-5.86
-8.22
-10.81
-13.35
-15.56
-17.23
-18.15
-18.17
-17.21
-15.30
-12.56
-9.15
-5.24
-0.99
3.40
7.66
11.46
14.43
16.27
16.89
16.42
15.14
13.47
11.73
10.20
8.97
8.02
7.28
6.67
6.06
5.33
4.34
3.03
1.46
-0.20
-1.77
-3.10
-4.18
-5.04
-5.74
-6.33
-6.92
-7.67
-8.85
-10.70
-13.28
-16.36
-19.33
-21.39
-21.82
-20.22
-16.69
-11.82
-6.41
-1.23
3.28
7.02
10.12
12.70
14.65
15.71
15.67
14.61
12.98
11.42
10.36
9.74
9.14
7.98
6.13
4.05
2.50
2.00
2.44
3.20
3.56
3.13
1.98
0.56
-0.62
-1.32
-1.74
-2.26
-3.10
-4.21
-5.26
-6.20
-7.11
-8.07
-9.07
-9.86
-9.94
-8.60
-5.23
0.18
6.34
11.73
15.41
17.35
18.07
18.38
19.12
20.81
23.49
25.75
26.71
26.84
27.50
29.45
32.50
36.04
39.74
43.85
47.40
50.59
54.77
60.96
67.66
70.74
65.42
48.48
19.51
-21.28
-70.55
-122.14
-169.30
-207.30
-233.49
-246.03
-243.77
-213.13
-154.47
-86.04
-31.40
-1.95
5.87
3.16
0.47
2.89
9.62
13.96
11.01
1.52
-9.61
-17.01
-18.20
-13.48
-5.11
4.44
11.59
14.70
14.94
14.95
16.58
20.19
25.60
31.60
37.90
43.39
47.62
51.32
55.68
61.24
67.48
73.22
77.00
77.66
73.97
65.85
54.79
43.15
33.12
25.71
20.78
17.28
14.07
10.18
5.40
0.34
-4.14
-7.50
-9.77
-11.45
-13.18
-15.41
-18.17
-21.19
-23.87
-25.50
-25.35
-22.93
-18.04
-11.06
-2.91
5.20
12.00
16.69
19.20
20.03
20.01
19.84
19.83
19.89
19.75
19.15
18.05
16.52
14.75
13.12
12.20
12.82
15.75
21.22
28.43
35.35
39.29
37.83
29.93
16.31
-0.84
-18.88
-35.64
-50.17
-62.67
-74.04
-85.30
-97.21
-110.15
-124.16
-138.75
-152.86
-165.16
-174.50
-180.41
-183.20
-183.76
-182.74
-179.99
-174.27
-163.49
-145.94
-120.84
-88.61
-50.21
-6.61
40.89
89.86
135.93
173.39
195.85
198.37
179.37
141.77
92.26
39.20
-9.07
-45.25
-62.14
-54.73
-21.73
32.95
100.39
168.17
223.42
256.62
264.40
251.90
228.06
201.62
178.06
159.64
146.32
136.93
130.37
126.00
125.72
130.18
137.45
143.39
144.67
140.46
132.52
124.35
104.96
70.71
26.95
-15.61
-49.77
-73.87
-89.28
-98.05
-102.36
-104.36
-103.40
-98.55
-88.26
-74.70
-60.97
-50.71
-47.79
-55.04
-72.50
-94.90
-115.89
-127.73
-127.48
-117.53
-103.42
-90.35
-80.56
-73.06
-64.26
-52.08
-37.38
-23.75
-14.31
-9.95
-9.17
-9.08
-7.88
-4.66
-0.13
3.81
4.69
1.45
-5.05
-12.60
-18.91
-22.68
-23.90
-23.43
-22.32
-21.14
-19.32
-15.79
-9.71
-1.39
7.69
15.20
19.29
19.61
17.31
14.60
13.59
15.50
20.11
26.10
31.57
34.75
34.58
30.74
23.79
14.64
4.34
-6.39
-17.16
-27.64
-37.23
-44.80
-49.18
-49.70
-46.80
-41.91
-36.91
-33.19
-30.99
-29.58
-27.71
-24.60
-20.27
-15.54
-11.46
-8.75
-7.41
-6.80
-6.00
-4.16
-1.05
2.99
7.18
10.66
13.04
14.45
15.55
16.96
18.94
21.05
22.42
22.17
19.76
15.35
9.59
3.48
-2.18
-6.75
-9.91
-11.51
-11.35
-9.33
-5.54
-0.51
4.80
9.03
10.94
9.94
6.34
1.46
-2.94
-5.20
-4.53
-1.14
3.86
8.97
12.85
14.55
13.56
9.76
3.38
-4.93
-13.97
-22.10
-27.60
-29.11
-26.21
-19.60
-10.95
-2.35
4.46
8.58
10.31
10.70
11.02
12.03
13.73
15.42
16.29
15.89
14.40
12.52
11.01
10.37
10.59
11.26
11.79
11.64
10.69
9.06
7.21
5.61
4.63
4.24
4.11
3.60
2.04
-0.76
-4.49
-8.29
-11.27
-12.92
-13.41
-13.41
-13.49
-13.70
-13.32
-11.29
-6.85
-0.21
7.42
14.25
18.74
20.27
19.12
16.26
12.71
9.33
6.68
5.15
4.91
5.73
6.93
7.51
6.64
3.97
0.02
-4.16
-7.49
-9.32
-9.60
-8.66
-6.97
-4.86
-2.62
-0.52
1.06
1.79
1.58
0.62
-0.71
-2.13
-3.65
-5.62
-8.34
-11.72
-15.08
-17.24
-17.10
-14.15
-8.78
-2.18
4.17
9.06
12.12
13.85
15.31
17.40
20.44
23.91
26.72
27.86
26.84
23.93
19.85
15.35
10.80
6.19
1.44
-3.25
-7.13
-9.18
-8.62
-5.55
-0.98
3.42
6.00
5.81
2.91
-1.78
-7.02
-11.73
-15.42
-18.20
-20.51
-22.71
-24.75
-26.13
-25.92
-23.45
-18.48
-11.60
-4.07
2.75
7.86
11.04
12.62
13.21
13.10
12.34
10.81
8.62
6.30
4.55
3.89
4.20
4.87
5.08
4.40
3.13
2.02
1.95
3.17
5.17
6.80
6.91
4.93
1.20
-3.17
-6.95
-9.28
-10.21
-10.48
-10.98
-12.23
-13.93
-15.29
-15.45
-14.28
-12.41
-11.00
-10.92
-12.20
-13.86
-14.34
-12.36
-7.49
-0.54
6.99
13.45
17.74
19.76
20.08
19.65
19.15
18.77
18.12
16.64
14.05
10.52
6.78
3.62
1.64
0.74
0.36
-0.29
-1.76
-3.91
-6.15
-7.63
-7.96
-7.46
-7.15
-8.19
-11.15
-15.56
-19.83
-22.04
-20.67
-15.56
-7.89
0.22
6.63
10.11
10.50
8.47
4.81
0.02
-5.79
-12.48
-19.33
-24.99
-27.79
-26.52
-20.98
-12.43
-3.02
4.92
9.73
11.15
10.10
8.26
7.07
7.13
7.99
8.63
8.32
7.11
6.09
6.57
9.36
13.92
18.80
22.19
22.88
20.96
17.43
13.71
10.64
8.22
5.77
2.51
-1.74
-6.43
-10.47
-12.92
-13.34
-12.25
-10.70
-9.95
-10.87
-13.42
-16.84
-19.80
-21.22
-20.60
-18.37
-15.37
-12.38
-9.74
-7.14
-4.14
-0.37
3.83
7.76
10.49
11.46
10.92
9.68
8.87
9.16
10.54
12.14
12.90
12.14
10.08
7.91
7.10
8.77
12.66
17.38
20.84
21.38
18.69
13.83
8.76
5.03
3.17
2.28
0.85
-2.28
-7.23
-12.94
-18.06
-21.60
-23.69
-25.24
-27.31
-30.26
-33.20
-34.53
-32.64
-26.98
-18.41
-9.03
-1.06
4.09
6.38
6.99
7.37
8.58
10.58
12.63
13.79
13.55
12.31
11.02
10.63
11.47
13.04
14.21
14.01
12.10
9.09
6.24
4.79
5.37
7.55
10.16
11.77
11.43
9.23
6.11
3.41
1.98
1.83
2.03
1.41
-0.65
-3.76
-6.68
-8.22
-7.94
-6.90
-6.85
-9.30
-14.40
-20.43
-24.65
-24.61
-19.56
-10.88
-1.47
5.79
9.29
9.30
7.57
6.15
6.48
8.68
11.89
14.98
17.11
18.26
18.71
18.85
18.64
17.71
15.65
12.45
8.71
5.42
3.53
3.48
5.07
7.29
8.92
8.92
6.84
3.14
-1.31
-5.37
-8.43
-10.52
-12.44
-15.16
-19.09
-23.77
-27.75
-29.41
-27.53
-22.15
-14.34
-5.79
2.19
9.71
18.03
29.00
43.47
60.41
76.75
88.37
91.61
85.01
70.41
52.51
37.42
30.06
32.35
42.24
54.66
63.64
64.98
58.67
48.67
40.79
39.45
45.37
54.73
60.91
56.79
37.37
1.81
-46.79
-102.56
-158.25
-206.04
-238.77
-250.90
-240.15
-208.55
-161.94
-109.10
-60.60
-26.02
-8.82
-7.88
-13.57
-14.60
-6.81
5.71
15.56
17.98
14.73
13.62
23.03
45.83
75.56
99.26
105.22
89.84
60.18
27.44
1.97
-11.87
-16.71
-19.68
-27.29
-41.13
-55.50
-64.61
-64.52
-55.49
-42.16
-30.65
-25.74
-28.69
-36.77
-44.76
-47.57
-42.14
-28.44
-9.39
10.53
27.23
38.55
44.84
48.36
51.04
53.73
55.86
56.15
53.50
47.53
38.78
28.42
17.91
8.43
0.85
-4.46
-7.68
-9.27
-9.66
-8.82
-6.40
-2.16
3.38
9.04
13.27
15.07
14.61
12.82
10.92
9.47
8.25
6.67
4.39
1.72
-0.66
-2.11
-2.66
-2.84
-3.38
-4.54
-5.95
-6.80
-6.30
-4.25
-1.11
2.13
4.47
5.26
4.48
2.69
0.72
-0.66
-1.10
-0.79
-0.38
-0.51
-1.49
-3.08
-4.56
-5.31
-5.11
-4.29
-3.55
-3.47
-4.14
-5.16
-5.84
-5.64
-4.63
-3.36
-2.64
-2.96
-4.36
-6.36
-8.14
-9.07
-8.94
-8.27
-7.92
-8.73
-11.03
-14.36
-17.65
-19.57
-19.16
-15.61
-9.22
-1.16
6.98
13.71
18.31
20.87
22.09
22.77
23.37
23.81
23.74
22.89
21.34
19.53
17.93
16.81
15.98
15.02
13.41
11.05
8.34
6.04
4.87
5.03
6.18
7.50
8.10
7.45
5.60
3.18
1.03
-0.20
-0.38
0.11
0.59
0.35
-0.98
-3.43
-6.62
-10.05
-13.24
-15.98
-18.28
-20.28
-22.22
-24.21
-26.26
-28.20
-29.77
-30.57
-30.10
-27.91
-23.57
-17.01
-8.58
0.79
9.85
17.29
22.18
24.30
24.17
22.81
21.28
20.35
20.20
20.46
20.50
19.77
18.24
16.27
14.56
13.58
13.45
13.69
13.64
12.85
11.38
9.84
8.90
8.98
9.76
10.49
10.28
8.56
5.47
1.67
-1.98
-4.96
-7.29
-9.52
-12.27
-15.80
-19.81
-23.51
-26.20
-27.57
-28.04
-28.43
-29.50
-31.33
-33.05
-33.20
-30.32
-23.88
-14.52
-3.99
5.66
12.84
17.04
18.79
19.17
19.28
19.52
19.75
19.43
18.14
15.94
13.35
11.13
9.73
9.15
8.85
8.16
6.72
4.69
2.82
1.95
2.54
4.22
5.86
6.07
3.84
-0.75
-6.58
-11.91
-15.33
-16.42
-16.01
-15.63
-16.68
-19.57
-23.40
-26.49
-27.03
-24.14
-18.01
-9.83
-1.11
7.13
14.55
21.52
28.44
35.32
41.42
45.60
46.92
45.13
41.13
36.43
32.63
30.40
29.18
27.47
23.52
16.73
7.84
-1.13
-8.12
-12.36
-14.92
-18.06
-24.03
-33.48
-45.00
-56.14
-64.89
-71.03
-75.74
-80.20
-84.17
-85.38
-81.00
-69.48
-52.19
-33.03
-16.69
-6.09
-1.06
1.21
4.30
10.35
19.14
28.35
35.25
38.18
37.20
34.02
30.68
28.68
28.22
28.19
26.99
23.59
18.13
11.98
7.21
5.34
6.76
10.22
13.61
14.92
13.16
8.96
3.95
0.03
-1.75
-1.62
-0.92
-1.21
-3.48
-7.64
-12.58
-17.02
-19.99
-21.44
-21.85
-21.81
-21.43
-20.09
-16.88
-11.14
-3.13
5.93
14.14
19.82
22.25
21.88
20.19
18.78
18.70
19.80
21.04
21.02
18.84
14.68
9.61
5.18
2.48
1.71
2.03
2.20
1.28
-0.87
-3.46
-5.44
-6.00
-5.35
-4.42
-4.53
-6.64
-10.66
-15.68
-20.44
-24.12
-26.68
-28.87
-31.38
-34.23
-36.46
-36.36
-32.44
-24.15
-12.49
0.40
11.97
20.23
24.59
25.71
25.09
24.06
23.28
22.48
21.08
18.67
15.48
12.35
10.20
9.54
10.03
10.80
10.89
9.80
7.86
5.91
4.84
4.94
5.78
6.26
5.27
2.24
-2.53
-7.88
-12.41
-15.04
-15.76
-15.45
-15.62
-17.50
-21.29
-26.03
-29.87
-30.94
-28.07
-21.35
-11.94
-1.58
8.04
15.87
21.55
25.32
27.52
28.37
27.84
25.90
22.81
19.21
16.06
14.06
13.44
13.62
13.65
12.62
10.17
6.85
3.72
1.97
2.18
4.03
6.39
7.86
7.46
5.00
1.22
-2.74
-5.80
-7.55
-8.23
-8.56
-9.26
-10.74
-13.03
-15.88
-19.05
-22.39
-25.71
-28.55
-30.03
-29.04
-24.62
-16.51
-5.57
6.34
16.93
24.28
27.54
27.30
25.08
22.61
20.97
20.22
19.58
18.18
15.72
12.66
10.00
8.51
8.31
8.74
8.82
7.88
5.90
3.65
2.04
1.69
2.42
3.40
3.54
2.06
-1.07
-5.18
-9.15
-11.99
-13.17
-12.94
-12.18
-12.02
-13.47
-16.83
-21.62
-26.69
-30.74
-32.70
-32.11
-29.05
-23.90
-17.11
-9.03
-0.13
8.98
17.24
23.55
27.06
27.53
25.62
22.43
19.20
16.70
15.11
13.98
12.77
11.09
8.97
6.81
5.10
4.20
4.08
4.44
4.79
4.77
4.31
3.51
2.61
1.63
0.42
-1.34
-3.84
-6.93
-10.04
-12.38
-13.43
-13.10
-12.08
-11.43
-12.20
-14.92
-19.21
-23.88
-27.36
-28.32
-26.10
-21.04
-14.20
-6.83
0.11
6.24
11.61
16.38
20.32
22.85
23.27
21.24
17.26
12.48
8.36
5.80
4.84
4.64
4.15
2.79
0.87
-0.63
-0.77
0.71
3.07
4.97
5.16
3.11
-0.66
-4.94
-8.47
-10.57
-11.31
-11.46
-11.90
-13.19
-15.40
-18.16
-21.01
-23.57
-25.70
-27.28
-28.04
-27.47
-24.81
-19.55
-11.72
-2.22
7.40
15.35
20.33
22.00
21.03
18.80
16.63
15.38
14.95
14.70
13.80
11.80
8.96
6.09
4.09
3.42
3.85
4.52
4.46
3.19
0.89
-1.68
-3.69
-4.69
-4.92
-5.09
-5.96
-7.98
-10.96
-14.43
-17.81
-20.91
-23.89
-27.04
-30.41
-33.38
-34.90
-33.60
-28.67
-20.10
-9.13
2.29
12.09
18.82
22.26
23.22
23.14
23.23
23.98
24.98
25.36
24.43
22.13
19.12
16.31
14.36
13.21
12.24
10.70
8.22
5.28
2.77
1.64
2.08
3.43
4.32
3.51
0.58
-3.80
-8.16
-11.07
-11.85
-11.03
-10.00
-10.33
-13.05
-17.97
-23.96
-29.31
-32.49
-32.59
-29.64
-24.20
-17.11
-9.16
-0.82
7.51
15.50
22.54
27.92
31.02
31.53
29.89
26.99
24.00
21.75
20.46
19.62
18.42
16.30
13.24
9.93
7.30
6.18
6.61
7.93
9.01
8.75
6.82
3.67
0.33
-2.21
-3.55
-4.15
-4.90
-6.60
-9.39
-12.67
-15.59
-17.51
-18.68
-19.90
-22.10
-25.44
-28.85
-30.43
-28.24
-21.51
-11.12
0.58
10.83
17.74
20.97
21.70
21.72
22.37
23.81
25.18
25.31
23.52
20.22
16.54
13.70
12.17
11.50
10.57
8.47
5.15
1.46
-1.21
-1.85
-0.33
2.31
4.51
4.88
2.83
-1.04
-5.51
-9.21
-11.39
-12.15
-12.48
-13.60
-16.34
-20.79
-25.99
-30.47
-32.76
-32.11
-28.61
-23.07
-16.51
-9.52
-2.27
5.35
13.14
20.34
25.69
28.05
27.07
23.49
19.01
15.39
13.82
14.15
15.33
15.93
14.90
12.27
8.90
6.08
4.67
4.73
5.39
5.55
4.41
1.97
-0.96
-3.32
-4.35
-4.19
-3.70
-4.09
-6.27
-10.24
-15.28
-20.22
-24.20
-26.91
-28.66
-29.81
-30.27
-29.35
-25.97
-19.41
-9.79
1.46
12.19
20.28
24.42
24.76
22.55
19.58
17.23
16.05
15.69
15.45
14.88
13.96
13.16
12.86
13.12
13.38
12.85
10.89
7.42
3.18
-0.77
-3.32
-4.09
-3.42
-2.42
-2.31
-3.79
-6.75
-10.25
-13.19
-14.78
-15.24
-15.57
-17.06
-20.52
-25.62
-30.96
-34.54
-34.72
-30.77
-23.26
-13.59
-3.53
5.45
12.55
17.61
20.96
22.98
23.90
23.71
22.35
20.03
17.27
14.78
13.09
12.37
12.16
11.80
10.68
8.68
6.30
4.26
3.22
3.30
4.03
4.55
4.12
2.46
-0.08
-2.68
-4.55
-5.26
-5.16
-5.08
-6.05
-8.80
-13.26
-18.73
-24.04
-28.10
-30.15
-29.94
-27.44
-22.71
-15.87
-7.34
1.93
10.64
17.37
21.20
22.01
20.52
17.94
15.40
13.59
12.58
12.00
11.34
10.25
8.69
6.89
5.26
4.12
3.65
3.61
3.59
3.12
1.95
0.31
-1.40
-2.76
-3.72
-4.61
-5.96
-8.12
-11.03
-14.27
-17.26
-19.59
-21.16
-22.17
-22.84
-23.26
-23.15
-21.89
-18.81
-13.44
-5.92
2.92
11.61
18.63
22.94
24.42
23.86
22.43
21.11
20.14
19.19
17.72
15.45
12.73
10.21
8.47
7.63
7.31
6.85
5.74
4.00
2.01
0.40
-0.40
-0.33
0.15
0.38
-0.32
-2.35
-5.53
-9.30
-12.91
-15.89
-18.22
-20.36
-22.87
-25.92
-29.04
-31.02
-30.55
-26.67
-19.53
-10.24
-0.56
7.82
13.99
17.91
20.26
21.77
22.86
23.40
22.98
21.44
19.02
16.46
14.52
13.60
13.41
13.26
12.42
10.55
8.04
5.66
4.22
3.96
4.46
4.77
3.94
1.60
-1.94
-5.73
-8.82
-10.55
-11.11
-11.25
-11.96
-14.06
-17.66
-22.25
-26.70
-29.84
-30.73
-29.05
-25.02
-19.21
-12.32
-4.85
2.80
10.30
17.08
22.41
25.50
25.89
23.89
20.42
16.84
14.21
12.89
12.41
11.92
10.74
8.81
6.75
5.38
5.26
6.16
7.33
7.77
6.88
4.78
2.13
-0.20
-1.74
-2.58
-3.36
-4.76
-7.08
-10.04
-12.89
-14.97
-16.05
-16.72
-17.93
-20.51
-24.47
-28.72
-31.43
-30.74
-25.85
-17.36
-7.25
2.10
8.98
13.00
15.10
16.65
18.59
20.75
22.19
21.78
19.19
15.20
11.27
8.81
8.32
9.19
10.07
9.74
7.86
5.06
2.70
1.91
3.12
5.61
7.95
8.66
6.88
2.88
-2.17
-6.68
-9.60
-10.79
-11.10
-11.79
-13.79
-17.25
-21.46
-25.40
-28.20
-29.61
-29.75
-28.87
-26.92
-23.35
-17.63
-9.61
-0.08
9.39
16.90
21.08
21.70
19.73
16.94
15.00
14.83
16.17
17.89
18.63
17.49
14.59
10.74
7.16
4.70
3.55
3.20
2.89
2.09
0.75
-0.67
-1.69
-1.99
-1.88
-1.98
-2.94
-5.06
-8.00
-11.00
-13.31
-14.74
-15.78
-17.48
-20.65
-25.30
-30.30
-33.71
-33.61
-28.94
-20.21
-9.26
1.49
9.94
15.30
17.95
19.06
19.70
20.24
20.30
19.28
16.97
13.83
10.92
9.18
9.04
9.95
10.89
10.82
9.22
6.50
3.57
1.50
0.75
1.12
1.68
1.39
-0.32
-3.26
-6.43
-8.74
-9.50
-9.23
-9.24
-11.07
-15.57
-22.05
-28.54
-32.54
-32.24
-27.30
-18.99
-9.44
-0.56
6.60
12.20
16.87
21.26
25.18
27.95
28.69
27.02
23.51
19.33
15.87
13.84
13.07
12.53
11.12
8.35
4.68
1.41
-0.18
0.55
2.92
5.43
6.38
4.77
0.93
-3.83
-7.81
-9.97
-10.37
-10.22
-11.01
-13.73
-18.30
-23.53
-27.85
-29.78
-28.82
-25.21
-19.80
-13.46
-6.65
0.40
7.67
14.77
20.98
25.28
26.93
25.82
22.66
18.81
15.58
13.85
13.48
13.64
13.18
11.34
8.20
4.57
1.61
0.12
0.21
1.13
1.80
1.35
-0.46
-3.11
-5.70
-7.36
-7.93
-7.91
-8.37
-10.28
-14.02
-19.16
-24.53
-28.77
-30.79
-30.17
-27.07
-22.06
-15.79
-8.76
-1.41
5.88
12.52
17.81
21.12
22.20
21.36
19.42
17.42
16.13
15.76
15.78
15.37
13.84
11.07
7.69
4.67
2.83
2.36
2.72
3.00
2.43
0.82
-1.42
-3.53
-4.93
-5.52
-5.78
-6.45
-8.16
-11.16
-15.11
-19.39
-23.23
-26.03
-27.45
-27.39
-25.83
-22.70
-17.88
-11.28
-3.18
5.73
14.27
21.12
25.26
26.36
24.98
22.22
19.27
16.82
14.90
13.01
10.63
7.70
4.72
2.56
1.86
2.68
4.31
5.64
5.68
4.03
1.12
-2.10
-4.58
-5.82
-6.07
-6.26
-7.50
-10.50
-15.18
-20.64
-25.54
-28.57
-28.98
-26.67
-22.09
-15.93
-8.81
-1.25
6.25
13.12
18.64
22.16
23.39
22.60
20.60
18.47
17.07
16.73
17.02
17.09
16.10
13.70
10.29
6.76
4.06
2.63
2.20
1.93
0.99
-0.94
-3.46
-5.72
-6.95
-6.92
-6.28
-6.08
-7.40
-10.74
-15.70
-21.32
-26.28
-29.54
-30.52
-29.16
-25.70
-20.45
-13.80
-6.08
2.17
10.32
17.49
22.88
25.92
26.45
24.93
22.19
19.27
16.88
15.24
14.03
12.61
10.52
7.76
4.87
2.62
1.64
1.87
2.71
3.20
2.59
0.78
-1.79
-4.31
-6.22
-7.46
-8.47
-9.82
-11.81
-14.34
-16.96
-19.24
-21.00
-22.45
-23.80
-25.07
-25.82
-25.12
-22.04
-16.05
-7.52
2.28
11.41
18.11
21.45
21.71
20.20
18.56
17.99
18.61
19.62
19.87
18.54
15.80
12.55
9.92
8.54
8.20
8.05
7.12
4.96
1.95
-0.93
-2.71
-2.92
-1.99
-0.93
-0.88
-2.51
-5.64
-9.51
-13.20
-16.22
-18.74
-21.40
-24.71
-28.42
-31.45
-32.08
-28.94
-21.57
-11.04
0.59
10.94
18.30
22.32
23.81
24.22
24.65
25.41
25.93
25.35
23.20
19.75
15.96
12.84
11.06
10.48
10.41
10.05
8.91
7.26
5.77
5.17
5.64
6.67
7.14
5.99
2.83
-1.75
-6.35
-9.54
-10.49
-9.66
-8.39
-8.37
-10.79
-15.61
-21.74
-27.42
-31.05
-31.70
-29.31
-24.42
-17.83
-10.33
-2.44
5.36
12.68
19.00
23.79
26.57
27.13
25.75
23.06
20.00
17.37
15.54
14.34
13.16
11.46
9.06
6.47
4.50
3.96
4.95
6.88
8.65
9.23
8.32
6.36
4.27
2.71
1.72
0.61
-1.46
-4.84
-9.07
-12.94
-15.29
-15.54
-14.27
-12.85
-12.81
-15.14
-19.63
-25.22
-30.28
-33.51
-34.23
-32.59
-29.20
-24.63
-19.18
-12.73
-5.22
3.13
11.36
18.12
22.13
22.84
20.84
17.51
14.50
12.79
12.39
12.34
11.53
9.31
5.95
2.51
0.19
-0.25
1.01
3.10
4.84
5.32
4.46
2.74
0.98
-0.34
-1.24
-2.37
-4.39
-7.49
-11.19
-14.40
-16.18
-16.18
-15.12
-14.37
-15.33
-18.51
-23.06
-27.11
-28.41
-25.61
-18.71
-9.28
0.44
8.45
13.79
16.82
18.58
20.15
21.76
22.91
22.64
20.36
16.39
11.87
8.27
6.46
6.44
7.13
7.29
6.16
3.90
1.53
0.11
0.20
1.27
2.25
1.98
-0.06
-3.34
-6.79
-9.31
-10.56
-11.17
-12.49
-15.72
-21.22
-28.10
-34.41
-38.03
-37.47
-32.64
-24.72
-15.64
-7.16
-0.10
5.64
10.75
15.66
20.18
23.44
24.56
23.27
20.27
17.07
15.16
15.38
17.27
19.48
20.40
19.00
15.49
11.05
7.33
5.42
5.54
6.76
7.74
7.44
5.58
2.76
-0.11
-2.40
-4.13
-5.83
-8.16
-11.30
-14.87
-18.21
-20.81
-22.71
-24.27
-25.87
-27.36
-27.93
-26.54
-22.32
-15.25
-6.07
3.74
12.54
19.02
22.49
23.12
21.75
19.67
17.99
17.38
17.76
18.46
18.67
17.79
15.84
13.29
10.83
8.88
7.49
6.32
5.01
3.49
2.02
1.11
1.05
1.73
2.54
2.65
1.45
-1.17
-4.63
-8.07
-10.65
-12.15
-13.03
-14.25
-16.76
-20.96
-26.38
-31.69
-35.21
-35.50
-31.97
-25.02
-15.96
-6.40
2.33
9.43
14.74
18.36
20.39
20.83
19.66
17.14
13.94
11.06
9.33
9.15
10.09
11.14
11.25
9.81
7.14
4.20
2.22
1.82
2.74
3.81
3.66
1.47
-2.55
-7.13
-10.74
-12.28
-11.85
-10.59
-10.18
-11.94
-16.12
-21.81
-27.35
-31.02
-31.74
-29.31
-24.29
-17.51
-9.78
-1.66
6.36
13.76
19.81
23.81
25.37
24.61
22.38
19.77
17.83
16.98
16.97
16.97
16.15
14.13
11.14
8.02
5.66
4.67
4.91
5.72
6.12
5.41
3.53
1.02
-1.32
-2.97
-3.98
-4.99
-6.76
-9.69
-13.61
-17.80
-21.52
-24.26
-26.03
-26.97
-27.09
-26.03
-23.01
-17.47
-9.47
0.13
9.80
17.92
23.43
26.15
26.72
26.21
25.53
25.09
24.66
23.71
21.68
18.47
14.50
10.57
7.57
5.97
5.63
5.80
5.53
4.22
1.96
-0.50
-2.17
-2.43
-1.53
-0.47
-0.46
-2.30
-5.76
-9.82
-13.18
-15.05
-15.63
-16.08
-17.71
-21.28
-26.40
-31.52
-34.64
-34.13
-29.55
-21.65
-12.15
-2.85
5.04
11.20
15.99
19.83
22.79
24.45
24.25
22.04
18.39
14.46
11.45
10.02
9.90
10.19
9.85
8.32
5.90
3.43
1.87
1.68
2.59
3.71
4.05
3.02
0.67
-2.25
-4.86
-6.43
-6.99
-7.12
-7.82
-9.87
-13.41
-17.92
-22.37
-25.80
-27.56
-27.57
-25.93
-22.74
-17.91
-11.31
-3.13
5.99
14.81
21.97
26.43
27.83
26.77
24.32
21.71
19.64
18.18
16.77
14.79
11.97
8.57
5.30
2.90
1.83
1.93
2.66
3.34
3.42
2.76
1.51
-0.01
-1.62
-3.26
-5.08
-7.24
-9.68
-12.20
-14.32
-15.72
-16.30
-16.58
-17.35
-19.39
-22.91
-27.02
-30.12
-30.33
-26.48
-18.67
-8.39
2.18
11.07
17.26
20.94
22.99
24.40
25.52
26.08
25.53
23.53
20.47
17.22
14.80
13.64
13.43
13.14
11.74
8.81
4.85
1.20
-0.78
-0.34
2.06
5.05
6.95
6.56
3.87
-0.17
-4.09
-6.81
-8.15
-8.80
-9.83
-11.98
-15.29
-19.06
-22.42
-24.81
-26.39
-27.63
-28.85
-29.70
-29.09
-25.84
-19.33
-10.13
0.18
9.47
16.07
19.43
20.14
19.60
19.14
19.45
20.30
20.87
20.27
18.06
14.67
10.98
8.09
6.55
6.15
6.08
5.43
3.84
1.71
-0.04
-0.63
0.15
1.55
2.37
1.51
-1.39
-5.69
-10.10
-13.32
-14.71
-14.55
-13.92
-14.11
-15.95
-19.47
-23.69
-27.18
-28.48
-26.84
-22.38
-16.01
-8.96
-2.03
4.39
10.47
16.30
21.58
25.49
27.09
25.98
22.52
17.98
13.86
11.35
10.65
11.15
11.72
11.30
9.61
7.03
4.49
2.81
2.34
2.71
3.11
2.80
1.44
-0.59
-2.65
-4.10
-4.89
-5.45
-6.46
-8.37
-10.90
-13.39
-15.10
-15.85
-16.18
-17.22
-19.92
-24.39
-29.63
-33.62
-34.30
-30.38
-22.15
-11.27
-0.19
8.94
15.19
18.88
21.15
23.02
24.84
26.10
26.03
24.32
21.35
18.25
16.07
15.33
15.60
15.88
15.13
12.92
9.71
6.56
4.62
4.40
5.62
7.23
8.05
7.35
5.13
2.17
-0.53
-2.18
-2.72
-2.68
-3.03
-4.55
-7.42
-11.16
-14.72
-17.16
-18.05
-17.78
-17.40
-18.08
-20.59
-24.67
-29.15
-32.40
-33.09
-30.67
-25.57
-18.76
-11.23
-3.58
3.95
11.14
17.59
22.59
25.49
26.06
24.67
22.28
20.00
18.55
17.93
17.57
16.69
14.88
12.33
9.67
7.73
7.11
7.82
9.24
10.42
10.57
9.34
7.03
4.35
2.09
0.87
0.62
0.51
-0.56
-3.17
-7.09
-11.32
-14.66
-16.23
-15.69
-13.71
-11.96
-12.15
-14.98
-19.87
-25.41
-30.04
-32.53
-31.70
-27.33
-20.24
-11.78
-3.01
5.65
14.09
22.17
30.01
38.91
50.05
63.89
79.57
95.01
107.45
113.61
110.63
93.27
62.95
29.36
3.46
-10.76
-16.38
-18.45
-20.83
-24.87
-29.64
-32.53
-33.96
-33.96
-34.36
-37.98
-46.23
-59.42
-77.06
-98.15
-120.81
-143.78
-167.33
-185.31
-195.16
-195.81
-188.14
-174.38
-156.91
-136.70
-113.61
-86.89
-56.46
-24.20
7.46
35.81
58.68
75.15
85.76
91.92
95.21
96.88
96.92
95.33
92.14
87.66
82.57
77.69
73.62
70.46
67.79
64.62
60.41
55.28
49.87
45.00
41.25
38.63
36.67
34.70
31.90
27.96
23.14
18.11
13.55
9.82
6.78
3.89
0.57
-3.60
-8.61
-14.05
-19.31
-23.77
-26.85
-27.93
-26.52
-22.35
-15.55
-6.84
2.71
11.90
19.72
25.50
29.02
30.44
30.15
28.72
26.71
24.61
22.61
20.71
18.85
17.06
15.51
14.41
13.79
13.44
12.94
11.96
10.43
8.68
7.14
6.14
5.63
5.19
4.20
2.28
-0.62
-4.10
-7.52
-10.36
-12.46
-14.00
-15.47
-17.26
-19.59
-22.44
-25.79
-29.57
-33.57
-37.22
-39.51
-39.37
-35.96
-29.30
-20.23
-10.25
-0.88
6.85
12.53
16.31
18.63
19.98
20.78
21.29
21.61
21.75
21.62
21.09
20.15
18.82
17.22
15.41
13.37
11.16
8.86
6.72
4.94
3.70
2.93
2.39
1.80
0.92
-0.30
-1.79
-3.37
-4.90
-6.29
-7.63
-9.09
-10.91
-13.27
-16.26
-19.91
-24.25
-29.15
-34.23
-38.78
-41.71
-41.90
-38.56
-31.70
-22.25
-11.78
-1.97
5.91
11.40
14.72
16.58
17.63
18.33
18.73
18.72
18.15
16.97
15.37
13.67
12.28
11.46
11.17
11.14
10.88
10.04
8.60
6.87
5.26
3.98
2.87
1.55
-0.36
-2.92
-5.75
-8.26
-9.98
-10.91
-11.55
-12.77
-15.36
-19.60
-25.00
-30.38
-34.18
-34.98
-31.97
-25.26
-15.78
-5.04
5.31
14.01
20.32
24.19
25.98
26.33
25.82
24.87
23.69
22.34
20.78
18.98
16.85
14.40
11.73
9.16
7.26
6.55
7.28
9.08
11.05
12.15
11.60
9.31
5.82
1.94
-1.61
-4.50
-6.73
-8.46
-9.86
-11.10
-12.46
-14.44
-17.60
-22.34
-28.51
-35.35
-41.61
-45.72
-46.32
-42.61
-34.56
-23.06
-9.73
3.48
14.74
22.93
27.84
30.06
30.65
30.58
30.30
29.80
28.86
27.25
25.05
22.56
20.08
17.79
15.75
13.96
12.49
11.41
10.82
10.65
10.71
10.70
10.38
9.56
8.21
6.42
4.40
2.35
0.47
-1.33
-3.28
-5.73
-8.95
-12.87
-17.10
-20.91
-23.57
-24.66
-24.38
-23.49
-23.11
-24.24
-27.26
-31.57
-35.73
-37.94
-36.70
-31.48
-22.92
-12.57
-2.16
6.90
13.89
18.68
21.45
22.44
21.98
20.47
18.51
16.73
15.71
15.61
16.17
16.71
16.43
14.84
11.95
8.26
4.57
1.62
-0.15
-0.61
-0.01
1.30
2.74
3.69
3.53
1.91
-1.01
-4.53
-7.66
-9.60
-10.17
-10.04
-10.37
-12.24
-16.01
-21.18
-26.47
-30.38
-31.57
-29.34
-23.69
-15.32
-5.37
4.77
13.85
21.02
25.95
28.74
29.69
29.04
27.07
24.18
20.93
18.01
15.90
14.70
13.99
13.11
11.52
9.18
6.56
4.31
2.91
2.32
2.13
1.91
1.51
0.99
0.43
-0.33
-1.73
-4.09
-7.32
-10.83
-13.79
-15.69
-16.72
-17.73
-19.75
-23.34
-28.09
-32.68
-35.42
-34.92
-30.65
-23.04
-13.25
-2.82
6.85
14.78
20.56
24.29
26.30
27.00
26.71
25.58
23.88
21.91
19.96
18.21
16.67
15.18
13.59
11.91
10.40
9.37
9.02
9.21
9.49
9.40
8.68
7.42
5.88
4.28
2.58
0.55
-2.02
-5.06
-8.22
-11.01
-13.13
-14.58
-15.68
-16.86
-18.54
-20.92
-24.04
-27.82
-32.02
-36.09
-39.25
-40.48
-38.86
-33.98
-26.19
-16.50
-6.29
3.16
11.05
17.12
21.49
24.41
26.04
26.45
25.70
24.02
21.77
19.44
17.36
15.66
14.12
12.57
10.80
8.86
6.94
5.22
3.81
2.64
1.66
0.92
0.55
0.73
1.33
1.90
1.80
0.57
-1.85
-5.04
-8.32
-11.09
-13.19
-14.78
-16.19
-17.75
-19.67
-22.08
-25.07
-28.55
-32.10
-34.91
-35.93
-34.19
-29.25
-21.35
-11.41
-0.80
9.02
16.76
21.63
23.50
22.96
21.03
18.84
17.13
16.04
15.18
13.95
12.06
9.66
7.22
5.20
3.93
3.28
2.94
2.68
2.36
1.99
1.53
0.84
-0.32
-2.09
-4.40
-6.93
-9.30
-11.19
-12.58
-13.74
-15.19
-17.40
-20.54
-24.40
-28.33
-31.38
-32.54
-30.99
-26.36
-18.86
-9.31
1.01
10.72
18.67
24.13
26.99
27.68
26.96
25.75
24.71
24.15
23.88
23.48
22.48
20.63
17.95
14.77
11.56
8.78
6.79
5.73
5.60
6.17
7.02
7.59
7.26
5.56
2.34
-2.01
-6.81
-11.13
-14.28
-16.09
-17.06
-18.28
-20.89
-25.48
-31.55
-37.57
-41.53
-41.64
-37.16
-28.56
-17.34
-5.35
5.68
14.58
20.80
24.42
25.91
26.01
25.52
25.00
24.75
24.76
24.85
24.88
24.74
24.29
23.31
21.51
18.70
15.12
11.40
8.41
6.81
6.71
7.50
8.13
7.58
5.27
1.39
-3.24
-7.52
-10.52
-11.94
-12.11
-11.89
-12.14
-13.52
-16.15
-19.84
-24.09
-28.20
-31.47
-33.15
-32.57
-29.26
-23.20
-14.85
-5.32
4.08
12.02
17.64
20.67
21.59
21.37
21.10
21.54
22.82
24.40
25.38
24.93
22.81
19.43
15.72
12.65
10.82
10.24
10.41
10.67
10.46
9.56
8.08
6.30
4.60
3.15
1.97
0.85
-0.45
-2.07
-3.95
-5.91
-7.78
-9.55
-11.36
-13.35
-15.50
-17.53
-19.21
-20.50
-21.85
-23.98
-27.49
-32.16
-36.80
-39.58
-38.75
-33.50
-24.30
-12.79
-1.00
9.21
16.85
21.64
23.92
24.29
23.40
21.75
19.78
17.88
16.37
15.49
15.28
15.54
15.88
15.80
14.95
13.29
11.04
8.66
6.54
4.82
3.43
2.18
1.02
0.12
-0.37
-0.51
-0.71
-1.65
-3.84
-7.29
-11.32
-14.98
-17.41
-18.44
-18.67
-19.14
-20.86
-24.19
-28.70
-33.22
-36.38
-36.94
-34.18
-28.07
-19.20
-8.78
1.77
11.07
18.12
22.58
24.72
25.16
24.58
23.43
22.06
20.70
19.61
19.01
18.84
18.65
17.80
15.83
12.85
9.65
7.33
6.64
7.59
9.31
10.50
10.19
8.22
5.23
2.19
-0.24
-2.03
-3.61
-5.44
-7.58
-9.65
-11.19
-12.03
-12.55
-13.50
-15.59
-19.08
-23.67
-28.50
-32.49
-34.49
-33.59
-29.37
-22.08
-12.73
-2.74
6.43
13.85
19.29
22.92
25.03
25.68
24.73
22.16
18.44
14.39
11.00
8.88
7.95
7.56
6.91
5.52
3.57
1.72
0.76
1.13
2.58
4.34
5.43
5.19
3.57
1.11
-1.47
-3.68
-5.44
-7.04
-8.76
-10.72
-12.92
-15.34
-18.11
-21.51
-25.58
-29.86
-33.36
-34.80
-33.05
-27.61
-18.90
-8.09
3.09
12.93
20.22
24.42
25.78
24.99
22.93
20.21
17.15
13.86
10.45
7.22
4.63
3.17
3.11
4.30
6.09
7.52
7.64
5.95
2.68
-1.18
-4.33
-5.81
-5.56
-4.44
-3.76
-4.62
-7.26
-11.12
-15.27
-19.00
-22.05
-24.57
-26.70
-28.20
-28.49
-26.91
-23.03
-16.97
-9.31
-1.06
6.73
13.08
17.53
20.14
21.42
21.98
22.17
22.02
21.29
19.78
17.52
14.88
12.37
10.37
8.92
7.76
6.50
4.86
2.87
0.85
-0.79
-1.72
-1.95
-1.94
-2.36
-3.80
-6.41
-9.76
-13.14
-16.01
-18.39
-20.91
-24.29
-28.74
-33.53
-37.10
-37.60
-33.83
-25.83
-14.90
-3.24
6.98
14.39
18.63
20.43
20.86
20.85
20.81
20.71
20.39
19.82
19.19
18.70
18.32
17.80
16.79
14.97
12.27
8.87
5.12
1.55
-1.29
-3.00
-3.35
-2.57
-1.32
-0.46
-0.82
-2.97
-6.95
-12.43
-18.77
-25.11
-30.53
-34.02
-34.80
-32.43
-27.16
-19.71
-11.19
-2.66
5.10
11.59
16.68
20.46
23.16
25.11
26.54
27.46
27.68
26.97
25.14
22.36
19.07
15.78
12.95
10.77
9.16
7.98
7.19
6.89
7.17
7.89
8.59
8.55
7.19
4.42
0.65
-3.24
-6.53
-8.99
-11.03
-13.48
-17.03
-21.88
-27.59
-33.09
-37.12
-38.40
-36.00
-29.68
-20.01
-8.38
3.29
13.28
20.56
25.04
27.31
28.19
28.34
28.15
27.79
27.41
27.00
26.36
25.10
22.76
19.16
14.72
10.29
6.79
4.81
4.33
4.85
5.67
6.20
6.10
5.16
3.36
0.77
-2.33
-5.54
-8.39
-10.53
-11.82
-12.39
-12.65
-13.17
-14.52
-17.12
-20.91
-25.29
-29.15
-31.26
-30.70
-27.21
-21.27
-13.81
-5.75
2.17
9.50
15.96
21.17
24.78
26.49
26.34
24.68
22.10
19.18
16.29
13.55
10.99
8.64
6.56
4.87
3.67
2.99
2.84
3.15
3.63
3.92
3.55
2.30
0.22
-2.22
-4.41
-5.76
-6.01
-5.38
-4.50
-4.15
-5.01
-7.37
-11.10
-15.67
-20.23
-23.86
-25.73
-25.23
-22.07
-16.39
-8.69
0.23
9.33
17.52
23.85
27.68
28.89
27.79
25.08
21.65
18.27
15.45
13.32
11.64
9.96
7.99
5.69
3.37
1.55
0.62
0.65
1.37
2.22
2.76
2.63
1.66
-0.15
-2.70
-5.73
-8.73
-11.06
-12.28
-12.35
-11.78
-11.42
-12.10
-14.25
-17.78
-22.11
-26.39
-29.52
-30.46
-28.36
-22.96
-14.84
-5.31
3.87
11.23
16.04
18.47
19.22
19.14
18.71
18.03
16.96
15.52
13.92
12.42
11.15
9.91
8.36
6.21
3.62
1.11
-0.61
-1.08
-0.37
0.97
2.14
2.51
1.92
0.58
-1.09
-2.82
-4.43
-5.90
-7.18
-8.28
-9.25
-10.34
-11.79
-13.67
-15.88
-18.11
-20.20
-22.15
-24.12
-26.02
-27.34
-27.21
-24.79
-19.80
-12.68
-4.56
3.30
9.96
14.97
18.35
20.31
21.10
20.82
19.60
17.55
14.88
11.86
8.76
5.88
3.41
1.44
-0.03
-1.05
-1.67
-1.89
-1.70
-1.20
-0.62
-0.35
-0.65
-1.64
-3.23
-5.21
-7.34
-9.40
-11.19
-12.54
-13.44
-13.99
-14.49
-15.41
-17.18
-19.89
-23.19
-26.26
-28.06
-27.69
-24.61
-18.91
-11.32
-3.12
4.35
10.06
13.71
15.62
16.46
17.01
17.68
18.32
18.32
17.03
14.19
10.20
6.01
2.49
0.75
1.42
3.94
6.74
7.98
6.45
2.19
-3.44
-8.95
-12.14
-11.75
-8.71
-5.71
-5.57
-9.67
-17.29
-25.94
-33.25
-36.04
-32.04
-21.45
-6.91
7.60
17.35
17.39
3.93
-24.87
-64.43
-104.90
-135.46
-148.15
-140.14
-114.07
-76.51
-28.19
19.38
54.50
75.19
86.42
92.05
92.65
87.95
79.02
69.00
60.41
56.41
58.43
64.51
70.44
72.55
69.60
62.72
54.84
48.22
45.98
50.47
61.49
75.81
88.19
92.91
85.34
65.22
34.45
-0.37
-30.90
-51.00
-59.06
-57.76
-50.48
-42.58
-36.62
-32.50
-28.10
-21.68
-13.54
-5.80
-0.97
-0.15
-2.96
-7.50
-11.48
-13.12
-11.94
-9.11
-6.96
-8.50
-14.90
-26.03
-39.99
-53.87
-64.80
-71.19
-73.53
-72.86
-72.78
-75.74
-82.45
-91.70
-101.26
-109.11
-113.84
-114.18
-108.78
-96.50
-78.27
-56.15
-35.57
-23.05
-22.66
-33.01
-46.62
-53.11
-44.39
-18.16
19.28
57.21
86.19
102.15
106.97
105.93
103.67
101.75
99.07
93.75
85.09
74.65
65.54
60.26
59.53
61.76
63.91
63.03
57.63
48.23
36.98
27.02
19.74
15.62
13.68
12.16
9.54
5.20
-0.24
-5.32
-8.43
-8.64
-5.71
-0.58
5.38
10.81
14.84
17.25
18.37
18.71
18.63
18.47
18.00
16.90
14.91
11.93
8.13
3.96
