1556891443.00
64.000000
-0.00
-0.00
-0.00
-0.00
-0.00
-0.00
-0.00
-0.00
-0.00
-0.00
0.00
0.01
0.01
-0.00
-0.03
-0.05
-0.05
0.00
0.13
0.36
0.66
1.01
1.37
1.72
2.06
2.40
2.79
3.24
3.80
4.42
5.06
5.66
6.20
6.68
7.15
7.68
8.31
9.14
10.09
11.04
11.88
12.56
13.14
13.76
14.65
15.96
17.91
20.32
22.90
25.38
27.58
29.57
31.68
34.32
37.81
42.54
48.15
54.10
59.83
64.97
69.58
74.14
79.34
85.71
93.76
103.00
112.62
121.73
129.77
136.75
143.30
150.75
157.77
166.64
177.95
191.79
206.97
220.57
228.25
225.36
208.53
176.87
132.76
80.05
23.07
-34.94
-92.44
-149.16
-205.23
-260.37
-313.74
-363.87
-409.83
-450.91
-486.50
-515.74
-537.23
-549.22
-549.96
-538.37
-514.21
-478.67
-433.88
-382.45
-327.02
-269.84
-212.63
-156.66
-102.95
-52.37
-5.90
35.58
71.43
101.35
125.50
144.38
158.69
169.15
176.37
180.75
182.57
182.07
179.51
175.23
169.65
163.18
156.15
148.81
141.30
133.69
126.02
118.33
110.69
103.16
95.80
88.68
81.83
75.25
68.95
62.95
57.25
51.86
46.78
42.02
37.58
33.45
29.62
26.08
22.82
19.84
17.14
14.72
12.58
10.72
9.11
7.71
6.47
5.34
4.30
3.37
2.59
1.97
1.55
1.28
1.09
0.91
0.69
0.40
0.09
-0.17
-0.33
-0.35
-0.26
-0.14
-0.09
-0.14
-0.32
-0.52
-0.61
-0.47
-0.07
0.51
1.03
1.25
1.01
0.32
-0.58
-1.30
-1.47
-0.93
0.10
1.14
1.60
1.09
-0.35
-2.27
-3.92
-4.63
-4.13
-2.74
-1.28
-0.63
-1.34
-3.34
-5.95
-8.17
-9.34
-9.27
-8.42
-7.74
-8.07
-10.07
-14.46
-22.16
-33.88
-49.24
-65.73
-78.79
-83.31
-75.79
-56.44
-29.57
-2.07
19.54
31.74
35.47
35.07
34.94
38.07
45.30
56.01
69.53
85.79
104.67
123.84
139.42
145.69
137.81
114.42
79.32
40.34
6.33
-16.46
-26.47
-26.53
-21.77
-16.60
-13.08
-10.88
-8.81
-6.10
-3.05
-0.62
0.42
-0.05
-1.42
-2.79
-3.47
-3.53
-3.58
-4.53
-6.95
-10.84
-15.57
-20.07
-23.23
-24.39
-23.55
-21.26
-18.40
-15.68
-13.51
-11.82
-10.30
-8.52
-6.28
-3.67
-0.97
1.48
3.52
5.16
6.65
8.35
10.59
13.52
17.04
20.89
24.77
28.47
31.78
34.63
37.13
39.41
41.59
43.74
45.93
48.18
50.58
52.82
54.82
56.58
58.20
59.79
61.47
63.31
65.41
67.92
70.48
73.06
75.87
79.20
83.33
88.35
94.08
100.19
106.44
111.86
116.07
119.03
120.81
121.29
119.94
115.41
105.30
92.57
77.63
60.99
43.36
25.56
8.28
-7.88
-22.72
-36.25
-48.53
-60.70
-73.70
-88.35
-104.79
-121.50
-134.98
-140.76
-135.29
-118.12
-93.49
-68.50
-50.58
-45.20
-53.23
-71.27
-93.97
-116.58
-136.86
-155.54
-174.47
-195.55
-221.42
-254.15
-295.11
-344.45
-400.00
-456.32
-505.28
-537.67
-546.59
-531.92
-498.39
-453.48
-404.58
-356.86
-312.51
-271.47
-232.75
-195.85
-163.32
-136.70
-115.44
-97.22
-79.63
-61.59
-43.73
-27.92
-3.19
31.85
70.88
104.26
125.84
135.45
136.56
133.14
127.91
122.00
112.64
99.10
82.86
66.90
54.40
47.59
47.30
53.10
63.77
76.46
87.09
94.39
99.51
104.65
112.03
122.95
137.48
154.67
172.08
188.09
202.66
216.55
230.10
243.11
255.46
268.14
283.16
301.52
321.66
338.29
343.16
328.57
291.79
238.01
179.62
131.83
106.58
108.21
132.48
168.97
205.41
231.45
240.53
229.98
200.56
156.26
104.57
56.16
22.84
14.02
33.08
75.47
130.04
183.45
225.12
250.80
262.72
266.40
266.62
264.73
258.81
245.84
224.32
195.52
162.68
129.26
97.05
65.42
32.17
-5.37
-49.33
-101.16
-161.43
-229.50
-302.59
-374.77
-436.94
-478.21
-489.06
-465.28
-410.48
-336.26
-259.26
-196.05
-158.31
-150.44
-169.80
-209.29
-260.01
-312.92
-359.08
-389.89
-398.16
-380.38
-338.66
-280.74
-217.80
-160.18
-113.77
-78.59
-50.49
-24.27
3.68
34.42
67.51
102.91
142.16
188.08
242.86
305.84
372.10
433.03
478.88
502.25
500.83
478.04
441.52
399.76
359.34
323.53
292.93
267.01
245.52
228.83
217.19
209.91
205.07
200.23
193.42
183.74
171.24
156.26
139.07
119.39
96.88
71.49
43.77
14.38
-16.25
-47.77
-79.42
-109.19
-133.95
-150.73
-158.60
-159.79
-158.89
-160.39
-166.14
-174.48
-181.90
-186.19
-188.62
-193.59
-205.42
-224.46
-245.57
-260.32
-261.99
-249.93
-230.51
-213.50
-206.21
-209.44
-216.99
-220.06
-213.00
-196.91
-179.29
-169.96
-175.75
-197.17
-228.81
-261.97
-288.28
-302.22
-302.07
-289.89
-270.67
-250.97
-236.94
-232.25
-236.27
-244.31
-249.47
-245.69
-230.28
-204.66
-173.37
-141.77
-113.91
-91.24
-72.70
-55.41
-35.78
-10.91
20.06
54.82
87.92
112.10
120.98
111.69
86.48
52.25
17.58
-10.80
-30.60
-44.22
-56.27
-69.84
-84.00
-93.95
-93.99
-81.78
-60.56
-38.17
-23.20
-20.51
-28.95
-42.40
-53.39
-56.72
-51.39
-40.14
-27.46
-17.52
-12.58
-12.58
-15.24
-16.89
-13.49
-2.25
16.97
41.67
67.58
91.15
111.48
131.12
154.96
187.25
228.67
274.89
317.17
344.70
348.22
323.28
271.95
202.54
126.95
57.20
2.46
-32.53
-46.85
-42.00
-20.66
13.45
55.40
99.40
140.14
174.39
201.80
223.71
240.80
250.93
248.59
227.82
186.25
128.39
65.59
12.68
-17.44
-18.56
7.01
50.10
98.91
143.05
175.91
194.64
198.56
187.65
162.04
123.15
75.13
25.13
-18.33
-48.28
-61.81
-60.79
-50.44
-36.59
-23.22
-11.86
-2.48
4.88
9.27
9.30
4.20
-5.24
-16.56
-26.54
-32.46
-33.06
-28.63
-20.59
-10.69
-0.50
8.94
17.08
23.80
29.20
33.52
37.11
40.48
44.17
48.72
54.44
61.27
68.41
74.29
76.77
74.02
65.45
52.38
37.80
25.32
17.56
15.11
16.32
18.26
18.23
14.90
8.57
0.46
-8.31
-17.36
-27.01
-37.68
-49.29
-61.09
-71.98
-80.98
-87.75
-92.57
-96.14
-99.23
-102.29
-105.39
-108.28
-110.61
-112.16
-112.97
-113.43
-114.19
-115.88
-118.88
-123.06
-127.85
-132.50
-136.54
-140.15
-144.22
-150.13
-159.12
-171.85
-188.09
-206.91
-226.91
-246.74
-265.30
-281.89
-296.41
-309.48
-322.37
-336.60
-353.06
-371.05
-387.85
-399.25
-401.03
-390.62
-368.14
-336.34
-299.31
-260.86
-223.26
-187.09
-151.93
-117.20
-82.77
-48.92
-15.85
16.54
48.71
81.14
113.94
146.67
178.58
208.92
237.36
264.13
290.04
316.01
342.74
370.47
398.91
427.70
456.98
487.80
521.93
561.01
605.35
652.99
699.60
739.44
766.96
778.22
771.85
749.04
713.12
668.84
621.64
576.65
537.66
506.18
481.03
458.94
435.92
408.90
376.65
339.81
299.92
258.39
215.97
172.88
129.34
86.11
44.44
5.58
-29.74
-61.69
-91.11
-118.98
-145.96
-172.00
-196.48
-218.59
-238.02
-255.16
-271.14
-287.39
-304.98
-324.35
-345.46
-368.31
-393.33
-421.01
-450.96
-481.04
-507.31
-525.01
-530.33
-522.15
-502.66
-476.53
-449.17
-424.91
-406.47
-395.44
-393.06
-400.43
-417.66
-442.44
-469.34
-490.65
-498.59
-488.00
-458.06
-412.10
-356.02
-295.79
-235.69
-177.53
-121.42
-66.77
-13.03
40.06
92.91
146.43
202.27
262.19
326.69
393.43
456.63
507.83
538.37
542.55
520.05
476.45
421.45
365.49
316.35
277.23
246.76
220.93
195.38
167.30
136.16
103.42
71.69
43.86
22.77
10.53
7.85
13.48
23.47
31.14
28.20
7.29
-34.83
-94.55
-160.65
-216.81
-246.68
-239.91
-196.48
-127.29
-50.48
14.57
53.28
59.20
34.20
-13.66
-73.33
-133.38
-183.88
-217.63
-230.85
-223.34
-197.95
-159.17
-111.37
-57.86
-0.77
58.00
115.46
167.03
207.21
230.97
235.30
220.20
188.45
144.72
94.00
40.28
-14.34
-69.36
-124.90
-180.40
-233.76
-281.38
-318.97
-342.77
-350.44
-341.34
-316.45
-278.08
-229.73
-176.00
-122.00
-72.40
-30.46
2.53
27.13
44.93
57.27
64.33
65.08
58.04
42.60
19.70
-8.41
-39.12
-70.53
-101.42
-130.64
-156.12
-174.48
-181.76
-175.12
-154.34
-122.43
-84.83
-47.66
-15.88
7.61
21.74
26.79
23.95
15.63
5.79
-0.28
2.89
18.96
48.02
86.21
126.68
162.00
186.61
198.69
200.19
195.57
189.63
185.58
184.28
184.53
184.34
182.31
178.29
173.29
168.78
165.85
164.73
164.89
165.56
166.30
167.17
168.33
169.61
170.33
169.33
165.37
157.37
144.58
126.67
103.93
77.69
50.74
27.15
11.34
6.47
13.11
28.80
48.90
68.52
84.37
95.81
104.35
112.11
120.12
127.40
131.02
127.12
112.63
86.31
49.37
5.39
-39.82
-79.08
-105.18
-112.90
-101.29
-75.07
-44.00
-19.74
-11.14
-19.99
-39.55
-57.07
-59.53
-39.78
-0.32
47.58
88.60
109.58
103.98
72.68
21.69
-40.81
-106.34
-166.58
-213.82
-242.10
-249.53
-239.80
-221.01
-201.84
-186.80
-174.00
-156.76
-128.60
-87.85
-39.05
9.56
50.41
79.63
97.07
103.79
99.51
82.12
49.27
0.39
-62.22
-133.78
-208.25
-279.13
-339.90
-384.22
-406.87
-404.97
-379.15
-333.86
-276.04
-213.52
-153.24
-100.34
-58.20
-28.71
-12.31
-7.89
-12.37
-21.17
-29.30
-32.44
-27.82
-14.33
7.60
36.01
67.98
100.28
129.94
154.61
172.38
181.51
180.58
169.40
149.89
126.56
105.52
92.43
89.94
96.52
106.98
115.06
116.25
109.50
96.67
80.68
63.72
46.79
30.77
17.28
8.68
6.76
11.07
18.41
23.50
21.38
9.68
-10.42
-34.99
-59.21
-79.42
-94.26
-104.62
-113.31
-124.54
-143.53
-175.41
-223.16
-285.22
-354.21
-418.13
-464.04
-482.79
-472.21
-437.55
-388.48
-334.75
-282.76
-234.32
-188.16
-142.27
-95.57
-48.09
-0.35
47.39
95.17
142.60
188.25
229.95
265.74
294.88
318.52
339.14
359.56
381.44
404.26
424.96
438.69
440.61
428.01
401.74
366.22
327.98
293.32
266.26
247.76
236.28
229.37
224.81
220.94
216.26
208.99
197.22
179.91
157.77
133.28
109.68
89.60
74.04
62.41
53.35
45.67
38.99
33.53
29.44
26.23
22.47
16.44
6.96
-5.79
-20.01
-32.75
-40.93
-42.58
-37.59
-27.73
-15.91
-5.28
1.52
2.68
-2.90
-15.66
-35.32
-60.54
-88.86
-117.02
-141.79
-161.02
-174.31
-182.95
-189.27
-195.56
-203.30
-212.74
-222.98
-232.38
-239.03
-241.27
-238.08
-229.29
-215.44
-197.49
-176.29
-152.41
-126.08
-97.56
-67.51
-37.22
-8.30
17.77
40.27
59.33
75.63
89.75
101.59
110.32
114.79
114.36
109.48
101.69
92.92
84.67
77.35
70.49
63.38
56.03
49.72
46.67
49.05
57.86
72.27
89.84
107.39
122.06
132.30
138.17
141.38
144.88
152.19
166.57
189.95
222.15
260.49
300.18
335.53
361.53
375.22
376.14
365.91
347.15
322.42
293.65
262.21
229.36
196.55
165.48
137.51
113.14
91.65
71.31
50.08
26.55
0.59
-26.60
-53.17
-77.51
-99.13
-118.92
-138.76
-160.73
-186.52
-217.29
-253.55
-295.01
-339.89
-384.17
-421.40
-443.87
-445.39
-424.30
-385.10
-337.15
-291.03
-254.48
-230.40
-217.73
-214.21
-218.69
-231.21
-251.12
-275.10
-296.97
-310.01
-310.11
-297.51
-275.87
-249.60
-220.99
-189.54
-153.65
-113.14
-70.55
-30.26
3.72
29.62
48.19
61.47
71.13
77.47
79.50
75.91
65.71
48.12
22.02
-14.18
-61.66
-119.29
-182.23
-241.98
-288.68
-314.62
-317.19
-299.54
-268.50
-231.28
-192.65
-154.21
-115.41
-75.60
-35.18
4.70
43.47
82.36
124.71
174.62
234.61
303.49
375.34
440.38
487.99
510.82
507.90
485.33
453.43
421.76
394.35
367.97
334.45
285.81
219.43
139.87
57.07
-17.92
-76.96
-116.82
-138.03
-142.54
-132.48
-111.06
-83.76
-57.92
-39.80
-30.98
-27.13
-19.71
-0.71
32.21
73.54
112.18
138.01
147.62
146.29
143.00
144.71
152.17
160.38
162.45
152.99
132.44
106.58
84.43
70.45
63.89
60.32
56.28
51.08
43.85
35.26
26.37
20.78
16.25
7.53
-11.09
-40.75
-77.40
-117.77
-156.14
-186.09
-198.00
-194.14
-184.88
-183.92
-199.59
-232.81
-284.42
-350.86
-425.11
-491.56
-544.26
-583.00
-611.01
-629.04
-596.28
-489.18
-312.90
-145.62
-13.67
77.45
144.56
194.81
234.21
267.46
290.95
300.59
295.34
285.68
276.38
269.09
262.64
257.61
254.90
249.73
237.41
215.83
192.08
169.13
147.96
127.90
110.14
96.40
84.65
72.39
58.03
45.13
34.49
25.85
18.41
12.90
10.51
10.13
9.63
6.32
-1.00
-15.65
-41.83
-83.04
-139.32
-206.38
-276.33
-338.85
-384.35
-406.62
-406.19
-389.47
-365.02
-339.30
-314.45
-288.14
-255.38
-211.95
-157.18
-94.94
-33.09
19.51
56.42
75.13
77.98
71.30
62.54
57.33
57.94
62.70
68.08
70.16
63.97
44.99
11.00
-36.40
-91.20
-144.10
-186.11
-210.58
-215.18
-203.53
-182.17
-156.80
-129.80
-100.54
-62.89
-19.12
18.34
42.02
46.38
29.23
-4.92
-45.38
-78.88
-94.58
-89.12
-65.79
-31.64
4.87
38.06
66.59
92.01
115.98
139.04
160.43
181.03
204.66
235.14
273.44
315.15
349.84
364.25
348.33
300.83
231.98
160.60
106.01
81.02
87.95
119.16
161.49
201.86
231.21
245.87
246.50
235.65
216.54
192.90
169.04
149.11
136.11
130.47
129.92
131.08
131.84
134.00
143.69
168.59
213.31
275.44
344.73
406.51
447.83
462.59
453.10
427.46
394.69
360.60
326.72
291.95
255.53
218.77
184.76
156.45
134.67
117.27
100.06
78.91
51.55
18.52
-17.08
-51.39
-81.51
-106.89
-129.58
-153.26
-181.70
-217.58
-261.99
-314.80
-374.98
-440.51
-507.85
-571.59
-625.19
-662.58
-680.21
-678.31
-660.54
-632.24
-598.29
-561.68
-523.52
-484.08
-444.02
-404.60
-366.95
-330.99
-294.80
-254.93
-208.02
-152.71
-91.17
-29.30
25.10
65.43
89.19
99.25
102.84
108.50
122.88
148.32
182.50
219.79
253.01
275.08
280.14
264.62
228.39
175.85
115.26
56.44
7.43
-28.48
-53.30
-72.57
-92.34
-116.20
-144.17
-173.28
-199.46
-219.35
-231.45
-236.03
-234.28
-227.43
-216.24
-200.91
-181.65
-159.12
-134.76
-110.71
-88.96
-70.52
-54.84
-40.07
-24.10
-5.74
14.86
36.44
57.38
76.99
95.65
114.66
135.56
159.24
185.65
214.41
245.70
280.66
321.02
367.12
416.05
460.87
491.73
498.89
476.24
423.90
348.62
262.03
177.46
106.73
58.10
35.59
39.23
65.58
108.32
158.88
207.49
244.90
264.19
262.16
239.70
200.70
149.93
91.04
26.09
-43.29
-113.20
-175.96
-221.04
-239.22
-227.81
-193.82
-152.53
-121.46
-112.75
-128.12
-159.30
-193.28
-218.68
-230.37
-229.29
-219.45
-204.22
-184.75
-161.35
-135.64
-111.50
-93.64
-85.10
-85.54
-92.37
-103.54
-119.60
-143.60
-178.19
-222.32
-269.71
-310.96
-337.32
-344.81
-335.55
-315.76
-292.07
-268.37
-245.02
-220.67
-194.74
-168.57
-144.66
-125.03
-109.18
-94.27
-76.23
-51.93
-20.69
15.54
53.00
87.88
117.74
142.44
163.99
185.83
211.55
243.50
281.52
322.41
360.27
388.21
400.74
395.88
376.18
347.95
319.14
296.74
284.83
283.89
291.02
301.07
307.83
305.02
287.24
251.09
196.34
126.76
49.79
-25.11
-88.94
-135.57
-163.31
-174.72
-175.14
-170.31
-164.20
-158.17
-151.41
-142.19
-128.99
-111.05
-88.31
-61.33
-31.40
-0.76
27.59
50.66
66.71
76.00
80.64
83.80
88.21
94.96
103.66
113.31
123.62
135.70
151.84
174.17
203.27
237.13
270.99
298.29
312.54
309.32
287.83
251.08
204.56
154.30
105.34
61.10
23.74
-5.32
-25.40
-37.34
-44.07
-49.82
-58.18
-69.59
-80.46
-84.58
-76.48
-54.64
-22.44
13.62
47.48
76.38
101.17
124.28
146.95
167.47
181.67
185.09
175.32
153.11
121.89
85.93
48.72
12.05
-23.86
-59.66
-96.03
-133.04
-170.54
-208.71
-248.55
-291.27
-336.85
-382.61
-423.24
-452.63
-466.85
-466.44
-456.08
-442.00
-428.33
-414.99
-398.27
-373.76
-339.60
-297.82
-253.11
-209.98
-170.42
-133.45
-96.51
-57.67
-16.73
25.17
67.05
109.31
153.73
202.12
254.11
305.84
350.05
378.27
383.80
364.03
321.19
261.16
191.19
118.15
47.77
-15.00
-65.62
-100.27
-116.79
-115.63
-99.83
-74.16
-43.33
-10.62
22.86
57.68
94.54
132.74
169.63
201.53
225.48
240.73
249.10
253.84
257.66
261.00
261.62
255.64
239.26
210.43
169.76
120.38
67.31
16.47
-26.36
-56.58
-72.04
-73.78
-65.82
-53.86
-43.53
-39.10
-42.82
-55.06
-74.58
-98.92
-125.10
-150.17
-171.96
-189.60
-203.57
-214.96
-224.52
-231.85
-235.30
-232.70
-222.66
-205.90
-185.68
-166.94
-154.50
-151.01
-155.74
-164.75
-172.48
-174.01
-166.99
-152.31
-133.14
-113.24
-95.41
-81.08
-70.75
-64.65
-62.92
-65.20
-69.87
-74.04
-74.62
-69.90
-60.73
-50.35
-42.67
-40.07
-41.90
-44.72
-44.15
-37.06
-22.84
-2.97
20.38
45.82
73.26
103.08
135.09
167.64
197.95
223.18
241.64
253.56
260.91
266.51
272.86
281.27
291.48
301.93
310.47
315.14
314.73
309.08
299.04
286.01
271.35
255.94
239.74
221.83
200.66
174.29
140.89
99.62
51.89
2.34
-41.55
-71.75
-82.95
-75.44
-55.78
-34.52
-22.16
-25.42
-45.80
-80.68
-125.50
-175.39
-225.41
-270.00
-303.20
-320.39
-320.87
-309.06
-293.23
-281.74
-279.21
-284.83
-293.82
-300.78
-303.08
-302.11
-301.91
-306.28
-316.34
-329.74
-341.66
-346.72
-341.07
-323.72
-296.65
-264.01
-231.02
-202.73
-183.01
-173.82
-174.77
-183.36
-195.48
-206.48
-212.31
-210.59
-200.99
-185.05
-165.32
-144.34
-123.84
-104.46
-85.99
-67.71
-48.82
-28.62
-6.64
17.26
42.68
68.78
94.57
119.47
143.73
168.47
195.04
223.77
253.08
279.29
297.67
304.32
297.94
280.72
257.79
235.50
219.19
211.63
212.52
219.03
227.08
232.62
232.64
225.66
212.01
193.67
173.88
156.38
144.38
139.57
141.54
147.88
155.32
161.20
164.71
167.10
170.72
177.37
187.13
198.21
208.04
214.81
218.25
219.37
219.31
218.21
215.13
208.79
198.57
184.91
168.88
151.25
132.12
111.26
89.27
68.20
51.21
41.29
39.75
45.46
55.25
65.32
72.61
75.52
73.69
67.41
57.06
43.13
26.54
9.02
-7.09
-19.55
-27.07
-30.05
-30.57
-31.68
-36.31
-46.10
-60.91
-78.94
-97.52
-114.10
-127.08
-136.09
-141.74
-145.06
-146.90
-147.57
-146.92
-144.61
-140.51
-134.86
-128.26
-121.28
-114.22
-106.89
-98.77
-89.41
-78.68
-66.97
-55.01
-43.52
-32.94
-23.41
-14.86
-7.23
-0.59
4.93
9.31
12.76
15.70
18.50
21.34
24.06
26.32
27.79
28.34
28.03
27.01
25.38
23.11
20.16
16.56
12.56
8.57
5.07
2.44
0.85
0.25
0.40
1.01
1.76
2.41
2.81
2.88
2.57
1.83
0.59
-1.21
-3.54
-6.16
-8.63
-10.43
-11.09
-10.41
-8.52
-5.77
-2.70
0.20
2.52
4.01
4.54
4.15
3.03
1.49
-0.07
-1.30
-2.04
-2.35
-2.45
-2.58
-2.89
-3.39
-3.91
-4.29
-4.46
-4.48
-4.55
-4.83
-5.40
-6.11
-6.64
-6.62
-5.81
-4.17
-1.86
0.90
3.92
7.10
10.33
13.35
15.74
17.03
16.93
15.50
13.17
10.54
8.18
6.30
4.85
3.59
2.31
0.93
-0.47
-1.71
-2.62
-3.09
-3.06
-2.55
-1.65
-0.48
0.84
2.23
3.77
5.69
8.38
12.28
17.76
24.96
33.64
43.17
52.58
60.88
67.21
71.31
73.45
74.51
75.66
78.00
82.20
88.30
95.75
103.73
111.50
118.70
125.49
132.48
140.36
149.62
160.13
171.04
180.74
187.22
188.50
183.15
170.80
152.25
129.28
104.25
79.41
56.60
37.03
21.32
9.53
1.17
-4.92
-10.51
-17.70
-28.53
-44.52
-66.47
-94.78
-129.72
-171.30
-218.53
-268.71
-317.40
-359.48
-390.69
-408.77
-413.45
-405.22
-384.26
-350.38
-304.20
-248.69
-189.92
-135.95
-94.11
-68.40
-58.05
-58.43
-63.58
-68.66
-71.09
-69.97
-64.92
-55.51
-41.77
-25.15
-9.02
2.05
4.21
-3.83
-20.18
-40.72
-61.26
-79.23
-94.11
-106.40
-116.05
-122.01
-123.09
-119.48
-113.42
-108.32
-106.58
-108.15
-110.64
-111.06
-107.68
-101.00
-92.81
-84.45
-75.53
-63.99
-47.53
-25.15
2.25
32.63
64.35
97.28
132.78
172.38
216.26
262.45
307.07
345.67
374.58
391.98
398.18
394.97
384.45
367.89
345.27
315.71
278.59
234.59
186.06
136.26
88.24
43.45
1.34
-40.04
-82.94
-129.07
-179.30
-233.83
-292.23
-352.92
-412.46
-465.29
-504.72
-525.06
-523.77
-502.58
-466.80
-422.93
-376.10
-328.91
-282.46
-238.52
-201.03
-175.32
-165.46
-171.07
-186.25
-201.36
-207.04
-197.98
-174.53
-141.42
-104.34
-66.93
-29.85
8.12
47.80
88.24
126.98
161.62
191.60
219.01
247.94
282.87
326.45
377.39
429.82
474.39
500.99
502.41
477.04
429.35
368.05
302.62
239.87
182.60
129.99
79.33
27.99
-25.21
-79.38
-131.70
-178.03
-213.93
-235.78
-241.83
-232.66
-210.61
-178.55
-138.65
-92.09
-39.95
15.17
68.20
112.19
140.48
149.42
139.83
116.43
85.31
51.27
16.43
-18.99
-54.69
-88.56
-116.36
-133.90
-139.30
-134.51
-124.55
-115.00
-109.29
-107.44
-106.70
-103.44
-95.18
-81.63
-64.38
-45.86
-28.12
-12.01
2.92
17.62
32.62
46.99
58.44
64.50
64.20
59.62
55.83
59.15
74.51
103.16
141.89
184.24
222.62
250.45
263.17
258.37
235.56
196.24
144.36
86.52
31.41
-11.75
-35.46
-35.83
-13.36
27.55
80.16
137.35
193.01
242.74
283.92
315.08
335.51
345.05
344.21
334.46
318.32
299.00
279.75
262.88
248.94
236.51
222.68
204.12
178.36
144.63
104.15
59.52
13.85
-30.28
-71.25
-108.40
-141.69
-171.32
-197.65
-221.40
-243.99
-267.71
-295.41
-329.52
-370.90
-418.02
-466.87
-511.79
-547.01
-568.11
-573.04
-562.30
-538.37
-504.90
-465.83
-424.72
-384.36
-346.62
-312.13
-280.47
-250.38
-220.17
-188.20
-153.47
-116.01
-77.20
-39.67
-6.46
20.18
39.96
55.11
69.89
89.24
116.89
153.55
196.10
238.05
271.47
289.50
288.52
269.16
235.55
193.65
149.34
107.42
71.63
45.12
30.68
29.94
42.13
63.43
87.88
109.52
125.06
135.12
143.38
154.10
169.35
187.59
204.49
215.10
216.30
207.88
192.06
171.90
149.97
127.74
106.15
86.48
70.78
61.47
60.28
67.27
80.62
97.38
114.52
129.84
142.28
151.51
157.44
159.84
158.40
153.05
144.19
132.54
118.83
103.31
85.54
64.63
39.95
11.99
-17.10
-43.82
-64.32
-75.67
-76.90
-69.15
-54.96
-37.05
-17.35
3.33
24.64
45.76
64.50
77.31
80.15
70.05
46.53
12.12
-28.08
-67.84
-101.47
-125.11
-137.32
-138.84
-131.92
-119.56
-104.80
-90.30
-78.08
-69.20
-63.77
-61.16
-60.31
-60.19
-59.89
-58.56
-55.25
-48.85
-38.38
-23.44
-4.35
17.95
42.30
67.76
93.58
118.83
141.79
159.73
169.23
167.19
151.83
123.42
84.28
38.08
-11.02
-59.18
-103.36
-141.48
-172.33
-195.50
-211.24
-220.21
-223.34
-221.67
-216.24
-208.21
-198.81
-189.26
-180.52
-172.96
-166.23
-159.41
-151.36
-141.17
-128.50
-113.66
-97.47
-81.03
-65.38
-51.37
-39.58
-30.26
-23.38
-18.68
-15.69
-13.92
-12.87
-12.15
-11.50
-10.76
-9.85
-8.71
-7.27
-5.55
-3.61
-1.56
0.50
2.35
3.68
3.90
2.28
-1.80
-8.40
-16.70
-24.93
-30.84
-32.43
-28.76
-20.24
-8.50
4.23
15.88
25.03
31.01
33.69
33.24
30.02
24.58
17.77
10.73
4.61
0.34
-1.70
-1.75
-0.55
1.03
2.22
2.61
2.10
0.78
-1.23
-3.91
-7.36
-11.58
-16.35
-21.05
-24.71
-26.24
-24.76
-19.88
-11.89
-1.72
9.40
20.22
29.80
37.60
43.44
47.31
49.26
49.26
47.37
43.86
39.28
34.38
29.99
26.69
24.65
23.70
23.42
23.44
23.59
23.90
24.46
25.19
25.67
25.15
22.85
18.21
11.33
3.05
-5.11
-11.42
-14.37
-13.23
-8.24
-0.61
7.87
15.29
20.05
21.22
18.64
12.81
4.71
-4.56
-14.07
-23.21
-31.75
-39.69
-47.07
-53.75
-59.34
-63.23
-64.80
-63.59
-59.57
-53.18
-45.40
-37.58
-31.23
-27.58
-27.17
-29.63
-33.61
-37.14
-38.19
-35.27
-27.81
-16.29
-1.98
13.37
27.94
40.09
48.61
52.78
52.42
47.96
40.35
30.99
21.48
13.34
7.75
5.27
5.85
8.87
13.48
18.79
24.04
28.67
32.14
33.99
33.78
31.35
26.94
21.30
15.66
11.42
9.86
11.84
17.52
26.45
37.63
49.83
61.67
71.62
77.92
78.62
71.95
57.09
34.87
8.20
-18.42
-40.10
-53.06
-55.86
-49.66
-37.54
-23.24
-10.01
-0.00
5.59
6.20
1.60
-7.92
-21.18
-35.97
-49.33
-58.33
-61.01
-56.90
-47.00
-33.13
-17.21
-0.65
15.73
31.45
45.98
58.48
67.83
72.98
73.36
69.19
61.61
52.34
43.22
35.63
30.19
26.72
24.65
23.41
22.82
23.16
24.81
27.89
31.94
35.85
38.26
38.16
35.47
31.38
28.07
28.01
33.03
43.53
58.25
74.64
89.65
100.67
106.04
105.24
98.70
87.44
72.86
56.74
41.24
28.65
20.89
18.84
21.86
28.03
35.04
41.49
47.65
55.17
65.93
80.30
96.25
109.54
115.14
109.27
90.79
61.43
24.74
-15.61
-57.52
-100.92
-146.60
-194.18
-240.44
-279.53
-305.14
-313.59
-305.86
-287.15
-264.16
-241.43
-219.62
-196.34
-169.06
-137.77
-105.40
-75.60
-49.57
-24.49
4.92
42.58
87.38
132.26
167.04
183.37
179.03
159.24
134.17
114.22
105.82
109.89
123.19
141.18
160.42
179.28
197.17
213.30
226.12
233.79
235.21
230.66
221.73
210.73
199.74
189.91
181.12
172.04
160.59
144.84
123.99
98.96
72.08
46.12
23.01
3.10
-14.71
-32.10
-50.24
-69.20
-87.95
-104.85
-118.33
-127.29
-131.33
-130.67
-125.95
-118.00
-107.54
-95.21
-81.55
-67.20
-53.01
-39.91
-28.71
-19.92
-13.69
-10.01
-9.02
-11.18
-17.36
-28.55
-45.51
-68.34
-96.18
-127.11
-158.46
-187.33
-211.33
-229.14
-240.61
-246.42
-247.48
-244.38
-237.41
-226.78
-213.29
-198.49
-184.50
-173.13
-165.02
-159.20
-153.38
-145.05
-132.54
-115.80
-96.29
-76.27
-57.90
-42.63
-30.98
-22.78
-17.44
-14.04
-11.42
-8.21
-3.16
4.48
14.63
26.26
37.76
47.45
54.01
56.88
56.20
52.62
47.09
40.51
33.56
26.57
19.39
11.58
2.61
-7.76
-19.19
-30.82
-41.36
-49.53
-54.33
-55.37
-52.90
-47.85
-41.57
-35.63
-31.42
-29.56
-29.43
-29.02
-25.44
-15.90
1.13
25.21
54.06
84.54
113.91
140.80
165.41
188.88
212.18
235.25
256.79
274.78
287.38
293.70
294.01
289.24
280.34
267.67
251.02
230.07
205.02
176.94
147.49
118.18
89.66
61.37
31.90
-0.26
-35.71
-73.77
-112.42
-148.80
-179.88
-203.13
-217.02
-221.23
-216.60
-204.89
-188.31
-169.03
-148.94
-129.48
-111.66
-96.15
-83.25
-72.95
-65.01
-59.17
-55.38
-53.85
-54.77
-57.69
-61.09
-62.58
-59.75
-51.29
-37.62
-20.71
-2.92
14.07
29.99
45.42
60.80
75.42
87.30
94.07
94.15
87.54
75.71
60.80
44.76
28.94
14.32
1.91
-7.07
-11.40
-10.33
-4.01
6.47
19.34
32.56
44.32
53.39
59.24
62.15
62.91
62.48
61.59
60.49
58.97
56.67
53.39
49.27
44.65
39.74
34.40
28.14
20.35
10.67
-0.84
-13.69
-27.17
-40.52
-53.00
-63.95
-72.65
-78.57
-81.50
-81.93
-81.06
-80.49
-81.49
-84.19
-87.00
-87.00
-80.83
-66.12
-42.52
-11.98
21.85
54.93
83.93
106.84
122.73
131.14
131.46
123.00
105.65
80.61
50.84
20.53
-6.14
-26.45
-39.88
-47.91
-52.87
-56.68
-60.11
-63.01
-65.16
-66.91
-69.27
-73.27
-79.16
-86.04
-92.14
-95.64
-95.49
-91.61
-84.71
-75.61
-64.82
-52.44
-38.39
-22.73
-5.95
11.03
27.11
41.33
53.22
62.86
70.80
77.62
83.56
88.25
90.85
90.44
86.57
79.56
70.52
61.00
52.45
45.85
41.51
39.12
38.04
37.53
36.90
35.60
33.18
29.38
24.18
17.93
11.36
5.41
0.93
-1.62
-2.29
-1.47
0.46
3.43
7.83
14.25
23.22
34.94
49.23
65.65
83.49
101.79
119.33
134.70
146.47
153.52
155.30
151.94
144.13
132.98
119.70
105.44
91.02
76.84
62.79
48.37
32.95
16.12
-1.98
-20.65
-38.86
-55.57
-70.04
-82.02
-91.59
-99.09
-104.92
-109.53
-113.48
-117.42
-121.90
-127.03
-132.36
-136.79
-139.00
-137.92
-133.13
-124.97
-114.38
-102.52
-90.55
-79.44
-69.98
-62.74
-57.97
-55.44
-54.40
-53.65
-51.91
-48.16
-42.01
-33.81
-24.54
-15.48
-7.81
-2.16
1.52
3.90
5.94
8.38
11.27
13.81
14.54
11.88
4.89
-6.25
-20.01
-33.90
-45.20
-51.79
-52.74
-48.35
-39.85
-28.76
-16.47
-4.05
7.62
17.70
25.34
29.90
31.28
30.04
27.36
24.56
22.63
21.85
21.78
21.63
20.71
18.83
16.30
13.75
11.72
10.57
10.39
11.20
13.05
15.95
19.79
24.25
28.93
33.60
38.32
43.44
49.23
55.58
61.89
67.32
71.23
73.55
74.83
75.78
76.81
77.64
77.44
75.14
69.90
61.36
49.60
35.00
18.07
-0.44
-19.43
-37.36
-52.42
-63.12
-68.85
-70.21
-68.78
-66.56
-65.11
-65.18
-66.68
-69.17
-72.24
-75.67
-79.10
-81.68
-81.94
-78.18
-69.23
-55.13
-37.36
-18.36
-0.69
13.93
25.07
33.33
39.86
45.58
50.78
55.12
57.93
58.59
56.92
53.28
48.40
43.16
38.25
33.98
30.25
26.66
22.79
18.39
13.50
8.29
2.92
-2.72
-8.97
-16.26
-24.80
-34.40
-44.50
-54.30
-62.97
-69.78
-74.03
-75.00
-72.02
-64.72
-53.43
-39.35
-24.44
-10.84
-0.16
6.91
10.76
12.47
13.24
13.93
14.94
16.33
18.02
20.02
22.49
25.60
29.41
33.74
38.09
41.68
43.63
43.15
39.84
33.86
25.99
17.38
9.24
2.54
-2.18
-4.87
-5.87
-5.78
-5.31
-5.21
-6.05
-8.03
-10.83
-13.65
-15.43
-15.35
-13.18
-9.46
-5.29
-1.82
0.28
1.11
1.47
2.39
4.61
8.16
12.43
16.38
19.14
20.25
19.84
18.40
16.48
14.48
12.53
10.55
8.34
5.68
2.37
-1.75
-6.58
-11.71
-16.36
-19.58
-20.52
-18.90
-15.16
-10.43
-6.03
-3.00
-1.71
-1.82
-2.57
-3.25
-3.51
-3.44
-3.30
-3.28
-3.33
-3.22
-2.81
-2.29
-2.09
-2.76
-4.60
-7.46
-10.76
-13.78
-15.95
-17.07
-17.23
-16.62
-15.32
-13.15
-9.77
-4.87
1.62
9.42
17.92
26.36
34.02
40.32
45.00
48.15
50.25
52.08
54.56
58.36
63.67
69.97
76.30
81.73
85.89
89.34
93.43
100.01
110.83
127.23
149.77
178.00
210.28
243.77
274.86
299.98
316.66
324.32
324.41
319.66
312.80
305.47
297.73
288.47
276.41
260.89
242.23
221.38
199.26
176.24
152.04
126.00
97.62
66.83
34.01
-0.23
-35.39
-71.25
-107.82
-145.14
-183.16
-221.51
-259.47
-295.92
-329.46
-358.56
-381.92
-398.66
-408.52
-411.77
-408.92
-400.49
-386.97
-369.01
-347.55
-323.98
-299.87
-276.62
-255.12
-235.56
-217.59
-200.70
-184.50
-168.85
-153.88
-139.73
-126.49
-114.22
-102.90
-92.54
-83.15
-74.68
-66.94
-59.69
-52.66
-45.68
-38.74
-31.99
-25.71
-20.27
-16.03
-13.31
-12.21
-12.50
-13.49
-14.19
-13.48
-10.50
-4.89
3.04
12.52
22.54
32.17
40.74
47.82
53.20
56.72
58.36
58.21
56.59
54.02
51.14
48.48
46.35
44.74
43.38
41.85
39.85
37.30
34.31
31.13
27.99
24.97
22.01
18.93
15.50
11.54
7.02
2.10
-2.75
-6.80
-9.19
-9.10
-6.14
-0.49
7.12
15.59
23.80
30.95
36.61
40.69
43.30
44.52
44.46
43.24
41.07
38.26
35.11
31.86
28.68
25.66
22.96
20.77
19.29
18.54
18.34
18.21
17.57
15.90
12.93
8.75
3.78
-1.36
-6.10
-10.08
-13.26
-15.90
-18.39
-21.01
-23.79
-26.40
-28.24
-28.57
-26.73
-22.27
-15.05
-5.49
5.43
16.20
25.06
30.55
32.12
30.45
27.47
25.71
27.55
34.42
46.47
62.53
80.50
97.95
112.65
123.11
128.87
130.46
129.11
126.13
122.41
118.14
113.11
107.21
100.85
94.85
89.84
85.37
79.58
69.46
51.89
24.70
-12.44
-57.70
-107.30
-156.13
-198.74
-230.52
-248.83
-253.73
-248.00
-236.31
-223.65
-213.73
-207.83
-204.65
-201.01
-193.13
-177.75
-153.05
-119.02
-77.47
-31.71
14.07
55.62
89.44
113.21
126.12
128.76
122.81
110.64
94.85
77.83
61.35
46.43
33.36
22.03
12.30
4.31
-1.47
-4.47
-4.46
-1.81
2.41
6.80
10.00
11.16
10.11
7.38
3.96
0.90
-0.99
-1.43
-0.72
0.31
0.67
-0.44
-3.30
-7.59
-12.55
-17.26
-21.02
-23.45
-24.39
-23.70
-21.09
-16.12
-8.53
1.43
12.84
24.25
34.07
41.04
44.55
44.69
42.05
37.47
31.90
26.36
21.90
19.49
19.77
22.77
27.83
33.71
39.02
42.63
43.95
42.96
40.05
35.75
30.56
24.93
19.35
14.44
10.86
9.22
9.78
12.35
16.27
20.56
24.24
26.58
27.28
26.47
24.52
21.85
18.75
15.37
11.79
8.11
4.49
1.07
-2.11
-5.16
-8.14
-10.91
-13.01
-13.79
-12.72
-9.83
-5.87
-2.14
-0.05
-0.54
-3.67
-8.68
-14.27
-19.09
-22.20
-23.18
-22.19
-19.71
-16.38
-12.83
-9.52
-6.78
-4.75
-3.43
-2.68
-2.22
-1.68
-0.70
1.03
3.54
6.52
9.42
11.50
12.23
11.39
9.31
6.70
4.42
3.15
3.22
4.53
6.66
9.10
11.37
13.09
13.98
13.81
12.44
9.94
6.67
3.24
0.39
-1.25
-1.44
-0.40
1.27
2.89
3.92
4.20
3.94
3.56
3.47
3.89
4.80
5.93
6.99
7.70
7.92
7.60
6.78
5.51
3.90
2.04
0.07
-1.89
-3.80
-5.64
-7.43
-9.18
-10.87
-12.43
-13.77
-14.84
-15.67
-16.35
-16.94
-17.46
-17.79
-17.73
-17.01
-15.42
-12.94
-9.73
-6.08
-2.35
1.18
4.37
7.12
9.37
11.05
12.07
12.38
12.00
11.02
9.58
7.86
5.96
4.00
2.07
0.26
-1.33
-2.63
-3.60
-4.24
-4.65
-4.93
-5.19
-5.48
-5.76
-5.90
-5.78
-5.34
-4.68
-4.05
-3.76
-3.96
-4.59
-5.32
-5.73
-5.42
-4.24
-2.26
0.23
2.85
5.26
7.17
8.42
8.98
8.91
8.31
7.29
5.94
4.33
2.55
0.73
-0.90
-2.12
-2.73
-2.63
-1.83
-0.45
1.33
3.24
4.97
6.26
6.96
7.11
6.93
6.68
6.56
6.63
6.88
7.37
8.29
9.97
12.68
16.48
21.03
25.72
29.83
32.80
34.43
34.91
34.69
34.34
34.34
34.99
36.31
38.04
39.63
40.38
39.57
36.70
31.75
25.21
17.90
10.63
3.78
-2.84
-9.79
-17.54
-25.84
-33.38
-37.96
-37.16
-29.44
-15.17
2.96
20.40
32.04
33.94
24.73
6.17
-17.39
-40.44
-57.93
-66.67
-65.82
-56.69
-42.07
-25.39
-10.05
1.17
6.56
5.78
0.03
-8.21
-15.90
-20.31
-19.84
-14.45
-5.51
4.78
14.08
20.46
22.72
20.46
14.00
4.26
-7.45
-19.74
-31.46
-41.99
-51.24
-59.40
-66.58
-72.46
-76.35
-77.43
-75.36
-70.39
-63.33
-55.10
-46.22
-36.56
-25.23
-10.80
8.42
33.82
65.83
103.21
142.81
179.83
208.87
225.37
227.06
214.68
191.48
162.16
131.37
102.80
78.75
60.29
47.69
40.74
38.82
41.08
46.40
53.52
61.05
67.51
71.34
71.09
65.57
54.13
36.94
15.02
-9.81
-35.31
-59.11
-79.09
-93.68
-102.11
-104.56
-101.99
-95.81
-87.54
-78.46
-69.53
-61.63
-55.70
-52.74
-53.28
-56.75
-60.87
-61.71
-54.58
-35.59
-3.49
39.20
86.05
128.11
156.29
164.28
150.80
120.19
81.17
43.73
15.72
0.36
-4.23
-3.46
-3.42
-8.32
-19.17
-33.84
-48.39
-58.58
-60.98
-53.45
-35.19
-6.69
30.34
73.12
118.09
161.42
199.51
229.28
248.35
255.22
249.43
231.80
204.59
171.25
135.68
101.30
70.34
43.43
19.99
-1.15
-21.00
-40.05
-58.41
-76.16
-93.39
-110.05
-125.56
-138.56
-147.43
-151.14
-150.23
-146.98
-144.69
-146.21
-152.70
-163.06
-174.60
-184.35
-190.21
-191.52
-188.62
-182.15
-172.50
-159.83
-144.53
-127.63
-110.81
-95.82
-83.78
-74.68
-67.51
-61.02
-54.33
-47.49
-41.24
-36.60
-34.24
-34.16
-35.72
-37.85
-39.39
-39.21
-36.59
-31.53
-25.13
-19.52
-17.24
-20.14
-28.26
-39.59
-50.69
-58.20
-60.22
-56.96
-50.40
-43.03
-36.75
-32.12
-28.56
-25.01
-20.91
-16.55
-12.92
-11.24
-12.18
-16.02
-22.62
-32.18
-45.54
-63.61
-86.21
-111.08
-134.13
-150.98
-158.95
-158.06
-150.22
-137.25
-119.30
-95.27
-64.79
-30.35
2.52
27.51
40.88
43.66
41.14
39.83
43.76
52.68
63.05
70.79
73.48
70.74
62.99
50.00
31.20
6.94
-19.43
-41.39
-51.24
-43.40
-17.43
21.44
64.14
101.57
127.94
142.17
146.88
145.81
141.62
135.14
126.18
114.79
102.08
90.05
80.67
75.00
73.16
74.86
79.81
87.79
98.05
108.90
117.66
121.43
117.80
105.48
84.39
55.34
19.89
-19.48
-59.12
-94.42
-120.75
-134.99
-136.85
-128.90
-115.42
-100.72
-87.79
-78.03
-71.73
-68.64
-68.65
-71.42
-76.11
-81.45
-86.03
-88.92
-89.93
-89.36
-87.56
-85.37
-83.13
-80.45
-76.29
-69.39
-59.67
-49.37
-42.83
-44.75
-58.56
-83.06
-112.34
-138.48
-155.34
-161.13
-158.29
-150.48
-139.25
-124.99
-107.10
-86.83
-68.61
-58.83
-63.10
-83.32
-116.45
-145.23
-153.87
-132.52
-82.49
-15.00
55.74
119.21
170.81
210.85
241.83
264.54
279.01
284.90
282.72
274.34
262.63
250.27
239.10
229.74
219.94
207.11
189.20
165.62
137.43
106.65
75.13
44.06
16.41
-8.15
-30.46
-51.08
-69.89
-86.16
-98.88
-107.83
-113.24
-115.88
-117.73
-120.79
-126.63
-135.57
-145.93
-154.08
-155.58
-146.53
-125.34
-94.20
-58.08
-23.04
5.99
26.40
39.76
48.56
54.79
58.85
59.60
55.84
47.74
37.46
28.42
23.51
22.97
24.14
22.65
14.83
0.55
-16.78
-31.61
-39.13
-37.31
-27.73
-13.91
0.95
15.19
27.91
36.87
37.18
22.61
-10.70
-60.86
-119.02
-172.19
-208.57
-222.44
-215.36
-195.11
-171.74
-152.62
-139.99
-131.59
-123.55
-113.41
-101.23
-88.74
-77.55
-67.68
-57.44
-44.21
-26.00
-2.35
25.42
55.00
84.23
111.76
137.59
162.92
189.51
218.72
250.99
286.07
323.81
364.62
408.77
455.24
500.79
540.06
567.11
577.62
570.82
549.78
520.26
487.63
455.15
423.73
393.07
363.22
334.81
309.01
286.74
268.64
253.30
238.05
220.03
197.27
169.37
136.50
99.63
60.40
22.50
-12.24
-43.88
-74.19
-105.36
-138.51
-174.52
-213.03
-252.48
-287.55
-315.65
-337.03
-354.73
-372.86
-394.78
-424.40
-464.86
-517.02
-574.13
-628.62
-672.58
-699.84
-707.29
-678.65
-606.24
-494.75
-380.68
-279.55
-194.67
-116.11
-31.90
60.94
149.35
221.60
270.92
292.37
290.15
270.95
242.64
211.16
179.09
146.61
111.96
73.66
33.08
-1.62
-23.39
-29.03
-21.24
-7.04
6.07
12.59
9.82
-2.10
-19.22
-38.95
-60.59
-84.92
-112.67
-143.20
-174.97
-206.86
-238.47
-268.02
-293.33
-311.12
-317.58
-309.61
-285.93
-247.96
-199.94
-147.98
-98.27
-56.54
-26.95
-11.13
-7.63
-11.94
-17.79
-19.43
-13.80
-1.63
13.16
25.32
30.75
28.01
18.36
4.62
-10.34
-24.60
-37.39
-48.66
-58.38
-66.10
-70.77
-70.77
-64.49
-50.88
-30.02
-3.24
27.40
59.95
93.21
126.86
160.87
194.81
227.59
257.66
283.75
305.37
322.74
336.01
344.43
346.35
339.90
324.38
300.97
272.79
243.81
217.76
197.15
182.93
174.72
170.83
168.57
164.73
156.37
141.63
120.42
94.59
67.33
41.88
20.15
2.17
-13.51
-28.56
-43.67
-57.72
-68.28
-72.74
-69.78
-60.32
-47.48
-35.44
-27.82
-26.18
-29.49
-34.77
-38.70
-39.34
-37.21
-34.89
-35.56
-41.25
-51.66
-64.34
-76.25
-85.35
-91.33
-95.30
-98.56
-101.65
-104.07
-104.95
-103.82
-101.01
-97.42
-93.96
-91.36
-90.18
-91.16
-95.33
-103.39
-114.91
-127.60
-137.29
-138.65
-126.80
-98.95
-55.71
-1.53
56.01
107.83
145.42
162.85
158.18
133.91
96.33
53.99
15.48
-12.50
-26.66
-27.22
-17.17
-0.87
17.13
32.99
43.86
47.87
44.42
34.23
19.59
3.89
-9.26
-16.82
-17.54
-12.32
-4.48
1.05
-0.91
-13.27
-35.02
-60.67
-81.89
-90.59
-82.09
-56.96
-20.44
19.90
57.20
87.21
108.68
122.23
128.96
129.62
124.86
115.84
104.58
93.58
85.01
79.73
77.23
75.92
74.14
70.95
66.46
61.62
57.33
53.92
50.98
47.89
43.94
38.90
32.63
25.05
16.05
5.63
-5.97
-18.43
-31.54
-45.38
-60.17
-75.83
-91.53
-105.71
-116.50
-122.39
-122.83
-118.26
-109.85
-98.93
-86.65
-73.84
-61.15
-49.14
-38.28
-28.82
-20.67
-13.51
-6.97
-0.88
4.67
9.49
13.44
16.62
19.41
22.28
25.67
29.77
34.48
39.53
44.64
49.64
54.62
59.73
65.06
70.39
75.06
78.09
78.45
75.71
70.63
65.36
63.14
67.49
81.32
106.13
141.49
184.93
232.22
277.77
315.66
340.65
349.50
341.78
319.95
288.40
252.09
215.39
181.60
153.14
131.69
118.05
111.61
109.71
108.24
102.59
89.30
67.14
37.21
2.23
-34.38
-69.09
-98.45
-119.27
-129.49
-128.95
-120.00
-107.12
-95.87
-91.08
-95.48
-109.37
-130.57
-155.78
-181.83
-206.80
-230.75
-255.92
-285.11
-319.53
-357.10
-391.60
-415.59
-423.02
-411.43
-382.83
-343.15
-299.15
-255.87
-215.48
-176.91
-139.99
-106.00
-76.67
-52.84
-34.72
-21.44
-12.78
-10.40
-15.53
-30.52
-54.65
-81.48
-100.97
-105.74
-95.07
-76.49
-62.34
-60.90
-76.07
-104.80
-138.75
-157.50
-145.88
-98.24
-21.14
55.17
118.36
165.85
198.44
220.81
232.45
229.67
209.39
170.71
115.44
49.92
-20.72
-91.61
-156.37
-207.37
-237.55
-241.85
-219.03
-171.79
-103.86
-22.64
62.41
140.89
201.71
234.55
233.42
199.97
144.90
86.35
41.21
18.67
16.84
24.10
25.23
9.17
-25.84
-71.88
-115.20
-143.85
-152.56
-144.09
-127.07
-111.90
-106.43
-113.75
-131.97
-155.40
-177.31
-191.90
-195.78
-188.35
-171.21
-147.08
-118.67
-88.27
-58.06
-30.69
-9.34
3.20
6.41
3.06
-1.06
0.65
12.50
34.00
59.80
82.05
94.15
94.09
85.44
75.69
72.54
80.48
98.88
122.79
145.73
162.86
172.99
178.39
182.81
188.89
196.51
202.99
204.72
199.31
186.89
169.75
150.91
132.30
113.97
94.51
72.51
47.93
22.65
-0.17
-17.45
-27.46
-30.48
-28.44
-24.00
-19.58
-16.81
-16.35
-18.30
-22.46
-28.56
-36.36
-45.49
-55.39
-65.21
-73.97
-80.81
-85.43
-88.20
-89.97
-91.50
-92.84
-93.04
-90.48
-83.80
-72.62
-57.81
-41.00
-23.78
-7.15
8.55
23.21
36.57
48.24
58.10
66.82
75.96
87.30
102.03
120.02
139.90
159.76
178.10
194.41
209.10
222.94
236.31
248.79
259.27
266.34
268.94
266.61
259.57
248.41
233.89
216.72
197.48
176.68
154.70
131.78
107.85
82.57
55.51
26.41
-4.51
-36.54
-68.80
-100.67
-132.00
-163.05
-194.09
-224.69
-253.41
-277.90
-295.51
-304.14
-303.02
-292.95
-276.05
-255.27
-233.74
-214.23
-198.74
-188.04
-181.48
-177.18
-172.61
-165.48
-154.58
-140.13
-123.69
-107.54
-94.03
-84.91
-80.92
-81.51
-84.99
-88.85
-90.60
-88.44
-81.92
-71.86
-59.96
-47.96
-37.10
-27.84
-20.05
-13.33
-7.24
-1.45
4.30
10.25
16.66
23.94
32.55
42.87
54.83
67.74
80.19
90.53
97.45
100.59
100.72
99.43
98.49
99.24
102.49
108.69
118.23
131.40
148.00
166.95
186.07
202.58
213.77
217.73
213.75
202.26
184.72
163.45
141.46
122.22
108.92
103.55
106.03
114.11
124.06
131.91
134.47
129.84
117.15
96.14
67.09
31.14
-9.39
-51.02
-89.91
-122.92
-148.49
-166.78
-179.02
-186.58
-190.18
-189.78
-185.12
-176.41
-164.71
-151.91
-140.09
-130.83
-124.74
-121.44
-119.96
-119.15
-118.00
-115.70
-111.51
-104.78
-95.21
-83.11
-69.46
-55.59
-42.58
-30.77
-19.83
-9.13
1.61
12.07
21.35
28.43
32.65
33.97
33.09
31.39
30.79
33.40
41.27
55.78
77.24
104.36
134.24
162.62
184.66
196.01
193.77
177.37
148.60
111.10
69.08
26.19
-15.25
-54.43
-91.53
-127.21
-162.15
-196.74
-230.74
-262.86
-290.51
-310.11
-318.09
-312.20
-292.52
-261.46
-223.01
-181.21
-138.92
-97.43
-56.75
-16.27
24.84
67.49
112.34
159.24
206.35
249.76
284.12
304.44
307.91
295.04
269.15
234.76
195.99
155.92
117.23
83.29
58.44
47.05
51.55
70.72
99.52
130.70
157.46
175.83
185.39
188.42
187.96
186.16
183.64
180.09
175.36
170.21
166.22
164.90
166.65
170.11
172.48
170.43
161.34
144.35
120.58
92.63
63.57
35.64
9.48
-15.87
-42.08
-70.18
-99.65
-128.28
-153.04
-171.38
-182.30
-186.55
-185.94
-182.39
-177.18
-170.85
-163.51
-155.22
-146.20
-136.73
-127.04
-117.20
-107.28
-97.42
-87.84
-78.79
-70.42
-62.81
-55.97
-49.88
-44.10
-37.60
-28.93
-16.93
-1.66
15.15
30.70
42.40
49.17
52.00
53.11
54.39
56.20
57.08
54.74
47.49
35.26
19.67
3.31
-11.26
-22.25
-28.79
-30.91
-29.29
-25.04
-19.40
-13.38
-7.61
-2.39
2.12
5.64
7.85
8.55
8.06
7.22
7.12
8.57
11.69
15.84
19.89
22.65
23.36
21.78
18.16
13.05
7.04
0.57
-6.21
-13.43
-21.39
-30.37
-40.24
-50.32
-59.19
-64.88
-65.33
-58.95
-45.20
-24.91
-0.25
25.72
49.75
69.08
81.93
87.67
86.68
79.91
68.65
54.19
37.52
18.95
-2.16
-27.56
-59.61
-100.11
-148.90
-202.72
-255.14
-297.80
-322.85
-325.43
-305.61
-268.38
-221.89
-174.72
-133.23
-100.32
-75.83
-57.99
-45.00
-35.70
-29.24
-24.25
-18.53
-9.48
4.73
24.21
47.16
70.66
91.95
109.35
122.48
131.64
137.07
138.59
135.68
128.02
116.00
101.02
85.41
71.99
63.34
61.01
64.70
71.82
78.13
79.08
72.02
57.84
41.44
30.06
30.21
44.41
69.68
98.48
121.93
133.58
131.74
119.50
102.49
86.02
73.19
64.69
59.90
58.33
60.14
65.71
74.60
84.99
94.04
98.89
97.96
91.55
81.63
71.21
63.21
59.64
60.94
65.80
71.34
73.98
70.63
59.95
42.99
22.60
1.97
-17.21
-35.69
-56.29
-82.08
-114.19
-150.66
-186.77
-216.97
-237.19
-246.53
-247.47
-244.62
-242.95
-245.91
-254.35
-266.31
-277.65
-283.17
-278.24
-260.43
-230.74
-193.77
-156.40
-125.30
-104.26
-92.55
-85.29
-75.66
-58.07
-30.51
4.75
42.55
77.29
105.21
125.29
138.71
147.45
153.02
155.98
156.39
154.39
150.55
145.58
139.79
132.65
123.00
109.75
92.85
73.75
54.99
39.17
27.86
20.99
17.13
14.37
11.35
7.79
4.45
2.45
2.71
5.58
10.70
17.13
23.59
28.57
30.77
29.78
26.44
22.85
21.48
24.12
31.11
41.51
53.99
67.88
83.48
101.26
120.48
138.25
149.88
150.87
139.33
117.51
91.34
67.97
52.55
45.90
44.34
41.77
32.91
16.03
-6.26
-28.24
-43.96
-49.77
-45.44
-33.58
-17.92
-1.70
13.12
25.46
34.43
38.85
37.59
30.40
18.57
4.86
-7.40
-15.60
-18.80
-17.99
-15.32
-13.04
-12.46
-13.72
-16.18
-19.36
-23.61
-30.48
-42.37
-61.80
-90.41
-128.02
-172.04
-217.53
-258.11
-287.75
-302.77
-303.18
-292.60
-276.65
-260.39
-246.25
-233.37
-218.67
-198.81
-171.96
-138.45
-100.35
-60.28
-20.57
17.02
51.10
80.32
103.38
119.34
128.07
130.38
127.83
122.32
115.57
108.80
102.69
97.41
92.89
89.01
85.70
83.04
81.08
79.67
78.39
76.55
73.37
68.37
61.66
54.22
47.65
43.68
43.45
46.88
52.60
58.49
62.66
64.33
64.06
63.32
63.58
65.58
69.24
74.20
80.49
88.86
100.10
113.87
127.58
136.42
135.09
120.36
93.37
60.10
29.48
9.77
5.02
13.48
28.68
42.69
49.79
48.62
41.91
34.33
29.77
29.63
32.66
36.12
37.15
33.69
24.61
9.33
-12.35
-40.06
-72.24
-105.64
-135.46
-156.44
-164.57
-158.67
-141.21
-117.74
-95.10
-79.17
-73.21
-77.22
-88.74
-104.22
-120.34
-134.52
-144.90
-150.08
-149.26
-142.79
-132.68
-122.29
-114.95
-112.15
-112.36
-111.51
-104.99
-90.23
-68.24
-43.21
-20.37
-3.45
6.82
12.41
16.38
20.97
26.72
32.75
37.91
41.74
44.67
47.59
51.03
54.79
58.16
60.34
60.96
60.29
58.94
57.60
56.74
56.55
57.05
57.95
58.51
57.48
53.63
46.45
36.89
27.34
20.72
18.95
21.86
27.20
31.88
33.69
32.38
29.45
26.76
25.18
23.95
21.37
16.12
8.38
-0.21
-7.43
-11.68
-12.76
-11.69
-9.98
-8.84
-8.70
-9.24
-9.81
-9.84
-9.05
-7.52
-5.51
-3.31
-1.08
1.17
3.55
6.25
9.40
13.02
17.00
21.08
24.90
28.12
30.43
31.71
32.08
31.91
31.74
31.98
32.75
33.63
33.81
32.34
28.59
22.48
14.59
5.94
-2.34
-9.31
-14.34
-17.23
-18.18
-17.96
-17.91
-19.81
-25.47
-35.97
-51.01
-68.57
-85.28
-97.42
-102.18
-98.64
-87.98
-72.91
-56.51
-41.23
-28.38
-18.21
-10.39
-4.52
-0.20
2.93
5.45
8.04
11.30
15.40
20.02
24.42
27.84
29.78
30.16
29.25
27.43
25.02
22.16
18.81
14.90
10.38
5.37
0.18
-4.68
-8.63
-11.19
-12.16
-11.65
-10.12
-8.08
-5.91
-3.74
-1.43
1.31
4.71
8.88
13.73
18.96
24.10
28.57
31.85
33.76
34.77
36.02
39.05
45.21
54.98
67.51
80.67
91.68
97.98
98.00
91.70
80.45
66.55
52.45
40.06
30.21
22.58
16.03
9.24
1.36
-7.53
-16.27
-23.11
-26.28
-24.67
-18.31
-8.34
3.23
14.16
22.54
27.25
28.22
26.26
22.81
19.41
17.25
16.90
18.27
20.82
23.87
26.81
29.29
31.20
32.66
34.08
36.21
40.01
46.43
55.93
68.12
81.51
93.67
101.72
102.99
95.65
79.13
54.26
23.14
-11.16
-45.04
-74.97
-97.98
-112.34
-117.89
-116.14
-109.94
-102.73
-97.57
-96.38
-99.44
-105.58
-112.75
-118.77
-121.92
-121.29
-116.72
-108.70
-98.05
-85.87
-73.35
-61.63
-51.73
-44.30
-39.50
-36.98
-35.91
-35.22
-33.97
-31.68
-28.44
-24.90
-21.82
-19.73
-18.58
-17.79
-16.51
-14.09
-10.36
-5.71
-0.94
3.11
5.72
6.50
5.35
2.44
-1.80
-6.83
-11.98
-16.60
-20.01
-21.64
-21.05
-17.96
-12.38
-4.69
4.30
13.50
21.70
27.84
31.29
31.87
29.82
25.68
20.07
13.68
7.19
1.26
-3.43
-6.32
-7.07
-5.60
-2.23
2.48
7.75
12.80
16.96
19.78
21.07
20.90
19.53
17.35
14.75
12.11
9.70
7.73
6.38
5.78
5.97
6.84
8.16
9.58
10.79
11.59
11.85
11.55
10.60
8.85
6.10
2.19
-2.82
-8.62
-14.58
-19.87
-23.62
-25.11
-23.96
-20.23
-14.42
-7.36
0.04
6.92
12.70
17.08
20.04
21.80
22.66
22.93
22.87
22.63
22.30
21.92
21.60
21.41
21.45
21.71
22.04
22.20
21.94
21.11
19.76
18.15
16.65
15.62
15.29
15.71
16.73
18.06
19.38
20.45
21.14
21.49
21.64
21.74
21.87
21.93
21.66
20.66
18.56
15.09
10.16
3.84
-3.68
-12.21
-21.55
-31.52
-41.82
-52.07
-61.76
-70.38
-77.53
-83.02
-86.90
-89.39
-90.80
-91.45
-91.59
-91.35
-90.63
-88.93
-85.14
-77.63
-64.62
-44.87
-18.54
12.26
43.64
70.77
89.33
96.82
93.24
80.80
62.85
42.72
22.82
4.54
-11.43
-24.48
-33.90
-39.03
-39.66
-36.30
-30.16
-22.74
-15.45
-9.25
-4.68
-2.15
-2.08
-5.07
-11.62
-21.81
-35.02
-49.81
-64.17
-75.96
-83.44
-85.78
-83.11
-76.35
-66.67
-55.03
-41.93
-27.56
-12.29
3.01
16.94
27.90
34.65
36.79
34.71
29.41
22.00
13.44
4.54
-3.83
-10.72
-15.11
-16.27
-13.99
-8.59
-0.81
8.62
19.17
30.51
42.44
54.72
67.05
79.11
90.60
101.19
110.39
117.50
121.74
122.56
120.02
115.02
109.12
104.14
101.41
101.36
103.30
105.69
106.64
104.52
98.40
88.22
74.80
59.53
44.10
30.11
18.82
11.04
7.05
6.60
9.06
13.45
18.54
23.10
25.91
25.98
22.44
14.56
1.81
-15.83
-37.43
-60.80
-82.60
-99.06
-107.12
-105.53
-95.34
-79.45
-61.54
-44.73
-30.78
-19.96
-11.68
-5.29
-0.55
2.32
3.06
1.73
-1.04
-4.21
-6.65
-7.43
-6.03
-2.22
3.95
12.08
21.29
30.15
36.92
40.02
38.54
32.54
22.99
11.36
-0.75
-11.94
-20.90
-26.33
-27.00
-22.08
-11.73
2.44
17.46
29.46
34.72
30.72
16.77
-5.82
-34.19
-64.59
-93.03
-115.83
-130.09
-134.16
-128.08
-113.88
-95.13
-75.99
-59.75
-47.68
-38.85
-31.01
-22.19
-12.01
-2.10
4.82
6.43
2.13
-6.61
-16.97
-26.10
-32.16
-34.69
-34.22
-31.51
-27.02
-20.83
-12.95
-3.73
6.04
15.37
23.50
30.31
36.27
42.19
48.64
55.60
62.30
67.48
69.95
68.95
64.55
57.67
49.81
42.61
37.41
34.89
34.92
36.76
39.30
41.39
41.92
39.96
34.99
27.27
18.28
10.56
6.94
9.09
16.40
25.72
32.51
32.98
26.01
13.90
1.27
-7.13
-8.65
-3.65
5.03
13.90
20.47
24.11
25.77
26.97
28.79
31.44
34.49
37.35
39.71
41.51
42.62
42.42
39.73
33.26
22.24
7.06
-10.61
-28.26
-43.41
-54.28
-60.23
-61.51
-58.70
-52.27
-42.42
-29.33
-13.60
3.48
19.99
33.80
43.15
47.12
45.72
39.77
30.48
19.17
7.13
-4.19
-13.17
-18.13
-17.80
-12.01
-2.11
9.14
18.32
22.48
20.08
11.36
-2.05
-18.05
-34.90
-51.69
-68.34
-85.18
-102.62
-120.79
-139.44
-157.78
-174.43
-187.41
-194.51
-193.81
-184.45
-167.27
-144.79
-120.60
-98.31
-80.49
-68.19
-61.09
-58.12
-57.97
-59.21
-60.00
-57.78
-49.53
-32.74
-6.62
27.04
64.09
99.26
127.81
146.85
155.60
154.94
146.62
132.80
115.99
99.16
85.57
78.04
77.96
84.39
94.07
102.18
103.81
95.58
76.83
50.24
21.43
-2.43
-14.89
-12.81
1.59
20.64
33.73
31.76
11.85
-20.28
-51.69
-67.22
-55.85
-15.60
45.50
112.67
169.90
205.19
213.27
195.39
157.34
107.11
53.11
3.09
-36.90
-63.50
-76.60
-79.06
-75.17
-68.81
-62.18
-55.85
-49.95
-45.81
-46.57
-56.17
-77.12
-108.43
-145.12
-180.06
-207.18
-224.24
-233.35
-238.84
-243.68
-246.83
-243.24
-226.85
-194.57
-148.89
-97.17
-48.31
-8.62
20.42
41.44
58.69
75.54
93.78
114.45
138.71
167.58
200.72
235.17
265.69
286.77
295.42
293.00
284.83
277.67
276.66
283.69
297.48
315.18
333.92
351.34
365.06
372.00
368.58
351.81
320.86
277.84
227.39
175.29
126.81
85.61
53.40
30.23
14.88
5.10
-2.05
-9.40
-18.57
-29.34
-39.98
-48.81
-56.03
-64.79
-80.34
-107.33
-146.83
-194.89
-243.56
-283.89
-309.37
-317.96
-311.89
-295.63
-273.54
-248.57
-222.42
-196.56
-173.10
-154.57
-143.00
-138.94
-141.15
-147.31
-155.04
-162.77
-169.83
-175.88
-180.51
-183.11
-183.43
-182.13
-180.94
-182.01
-186.96
-196.15
-208.74
-222.97
-236.56
-246.91
-251.16
-246.68
-231.96
-207.45
-175.78
-140.99
-106.92
-75.61
-46.78
-18.48
11.23
42.86
75.07
105.51
132.19
154.51
173.48
190.87
208.14
225.57
242.11
256.13
266.56
273.68
279.04
284.22
289.35
292.24
289.18
277.00
255.24
226.95
197.50
171.88
151.95
135.72
118.90
97.72
71.22
41.48
11.94
-15.02
-39.33
-62.66
-86.51
-110.48
-131.99
-147.51
-154.41
-152.22
-142.71
-128.80
-113.15
-97.33
-81.43
-64.46
-45.22
-23.19
0.90
25.03
46.54
63.22
74.08
79.46
80.44
77.98
72.31
63.23
50.82
35.93
20.19
5.23
-8.06
-19.72
-30.19
-39.45
-46.65
-50.51
-50.14
-45.88
-39.44
-33.17
-29.14
-28.28
-30.02
-32.82
-35.01
-35.49
-34.12
-31.54
-28.75
-26.63
-25.81
-26.69
-29.51
-34.28
-40.50
-46.95
-51.75
-52.90
-49.17
-40.92
-30.28
-20.53
-14.77
-14.60
-19.66
-27.99
-37.30
-46.04
-53.94
-61.71
-70.52
-81.40
-94.95
-111.10
-128.82
-145.94
-159.45
-166.38
-165.05
-155.93
-141.52
-125.22
-109.90
-97.05
-86.66
-77.79
-68.98
-58.37
-43.73
-22.88
5.22
39.27
75.38
108.41
134.14
151.33
161.94
169.78
178.04
187.60
196.93
203.47
205.28
201.96
194.13
182.13
165.23
142.04
112.00
76.86
41.02
10.00
-11.91
-23.56
-27.25
-27.14
-27.01
-28.68
-31.86
-35.44
-38.92
-42.77
-47.77
-53.63
-58.24
-58.16
-49.94
-31.77
-4.37
29.21
64.73
98.05
126.25
148.24
164.59
176.88
186.48
193.26
194.83
186.91
165.21
127.87
77.43
20.96
-32.03
-72.60
-95.18
-98.65
-85.67
-61.08
-30.79
-1.31
20.66
29.19
21.04
-2.52
-35.45
-68.79
-94.03
-106.26
-105.37
-94.90
-79.43
-62.34
-45.09
-28.01
-11.56
2.90
13.46
18.51
17.52
11.20
1.16
-10.75
-22.99
-34.72
-46.08
-57.85
-70.89
-85.19
-99.36
-110.70
-116.36
-114.85
-107.14
-96.64
-87.72
-83.77
-85.64
-91.48
-97.83
-101.47
-100.66
-95.52
-87.36
-77.69
-67.64
-57.86
-48.80
-40.88
-34.44
-29.51
-25.74
-22.53
-19.29
-15.49
-10.71
-4.50
3.44
12.87
22.67
30.93
35.74
36.57
35.11
35.01
40.25
52.75
70.81
89.28
101.86
104.17
95.97
81.18
65.62
54.28
49.24
49.88
54.61
62.20
71.90
82.12
89.24
88.15
74.64
48.14
13.01
-23.01
-52.30
-70.74
-79.00
-80.98
-80.78
-80.24
-78.60
-73.93
-65.34
-54.12
-43.35
-36.34
-35.21
-40.16
-49.70
-61.48
-73.41
-84.61
-95.90
-108.95
-124.95
-142.96
-159.06
-167.17
-161.05
-136.64
-93.77
-36.24
29.32
95.16
154.09
200.54
231.44
246.48
247.84
239.01
223.28
202.84
178.84
152.60
126.75
105.29
91.93
88.01
91.42
97.66
102.62
105.27
108.39
116.82
134.39
161.36
194.01
226.41
253.02
270.54
278.33
277.33
268.63
252.84
230.12
201.08
167.74
133.52
102.12
75.89
54.31
33.90
9.99
-20.60
-57.35
-95.68
-128.99
-151.99
-162.96
-163.84
-158.50
-150.12
-140.20
-129.67
-120.90
-118.47
-127.26
-148.98
-179.57
-209.82
-229.34
-231.77
-218.07
-195.75
-174.79
-162.62
-161.07
-166.60
-172.98
-174.52
-168.18
-153.75
-132.96
-108.44
-83.00
-59.31
-39.65
-25.48
-17.10
-13.89
-14.55
-17.34
-20.60
-22.91
-23.34
-21.49
-17.53
-12.04
-5.83
0.44
6.51
12.54
18.84
25.40
31.46
35.50
35.77
31.29
22.71
12.49
4.12
0.67
3.45
11.51
22.24
32.69
40.68
45.25
46.17
43.28
36.24
24.96
10.43
-4.72
-16.61
-21.36
-16.72
-3.35
14.94
32.04
41.28
37.45
18.46
-13.89
-54.02
-93.80
-124.59
-139.51
-135.37
-113.51
-79.26
-40.23
-4.01
23.82
40.70
47.12
45.70
39.97
33.34
28.64
28.11
33.48
45.64
63.96
85.58
105.38
117.37
116.95
103.26
80.16
55.09
35.96
27.57
29.46
36.38
41.12
38.17
26.26
8.63
-8.84
-20.39
-22.63
-15.57
-2.21
12.68
24.03
27.81
21.92
6.63
-15.56
-40.61
-64.12
-82.52
-93.92
-98.26
-96.85
-91.61
-84.62
-77.88
-73.37
-72.82
-77.24
-86.22
-97.59
-107.79
-112.97
-110.39
-99.47
-81.84
-60.58
-38.95
-19.34
-2.87
10.37
20.97
29.79
37.75
45.65
53.92
62.28
69.62
74.11
73.90
68.03
57.21
44.20
33.31
29.00
34.20
48.89
69.62
90.27
104.07
106.08
95.24
74.90
51.54
32.38
22.78
24.72
36.79
55.13
74.73
90.46
97.87
94.01
78.27
52.88
22.56
-6.89
-30.51
-45.84
-53.26
-55.20
-54.61
-53.70
-53.60
-54.68
-56.79
-59.34
-61.12
-60.53
-56.33
-48.64
-39.63
-33.13
-33.48
-44.02
-65.71
-96.52
-131.59
-164.09
-186.45
-192.21
-177.82
-144.23
-97.37
-47.13
-4.81
20.25
23.53
6.60
-23.76
-58.21
-87.87
-106.72
-112.49
-106.20
-90.94
-70.70
-49.55
-31.09
-18.05
-11.81
-11.98
-16.28
-20.80
-20.86
-12.16
7.95
39.57
79.97
124.36
167.59
205.97
238.30
265.51
289.08
309.22
324.03
330.34
325.66
309.97
286.20
259.16
233.67
212.94
198.06
188.35
182.05
176.74
169.69
158.36
141.43
119.62
95.72
73.21
54.21
37.87
20.50
-2.40
-33.37
-70.93
-109.60
-141.92
-161.45
-165.18
-154.36
-133.80
-110.09
-89.97
-79.12
-81.30
-97.73
-126.72
-163.65
-201.93
-234.70
-256.86
-266.48
-264.78
-254.89
-239.99
-221.92
-201.07
-177.32
-151.35
-125.28
-102.13
-84.56
-73.51
-67.88
-65.02
-61.98
-56.57
-47.74
-35.34
-19.61
-0.96
19.92
41.71
62.34
79.22
89.92
93.00
88.61
78.60
66.05
54.43
46.61
43.98
46.05
50.58
54.48
55.09
51.58
45.58
40.67
40.59
47.18
59.24
73.07
84.31
90.09
90.05
85.70
78.86
70.54
61.00
50.82
41.63
35.75
34.52
36.89
39.20
36.94
27.43
11.55
-6.52
-21.62
-30.28
-32.27
-30.09
-27.19
-25.94
-26.80
-28.60
-29.61
-28.54
-24.75
-18.37
-10.12
-1.37
5.75
8.61
4.74
-7.21
-26.78
-51.70
-78.61
-104.00
-124.96
-139.31
-145.63
-143.39
-133.38
-118.24
-102.24
-90.16
-85.55
-89.10
-98.16
-107.65
-112.01
-106.98
-90.80
-64.25
-30.07
7.76
44.67
76.12
98.56
110.30
112.07
106.86
98.82
91.82
88.23
88.35
90.55
91.93
89.20
79.74
62.67
39.82
15.94
-2.25
-8.36
0.89
23.71
53.28
80.02
95.55
96.12
84.08
66.43
51.47
45.15
49.17
61.19
76.56
90.34
98.49
98.29
88.39
68.89
41.62
10.08
-21.39
-48.83
-69.93
-84.35
-93.21
-98.01
-99.87
-99.30
-96.48
-91.54
-84.36
-74.38
-60.71
-42.61
-20.31
4.57
29.24
50.63
66.25
74.79
76.08
70.63
59.39
43.85
26.31
9.86
-2.32
-8.18
-7.80
-3.72
-0.06
-0.85
-8.21
-21.46
-37.47
-52.18
-62.25
-66.19
-64.30
-57.92
-48.49
-37.12
-24.75
-12.57
-2.03
5.41
8.94
8.89
6.73
4.61
4.55
7.63
13.45
20.16
24.92
24.91
18.78
7.69
-4.35
-11.74
-9.65
3.42
24.41
46.50
61.99
65.77
57.92
43.76
31.30
27.51
35.45
53.53
76.97
100.23
118.79
129.45
129.74
117.58
92.14
55.19
11.96
-29.81
-62.55
-81.83
-87.98
-85.26
-78.96
-72.57
-66.42
-58.70
-47.75
-33.86
-19.65
-8.89
-4.80
-8.75
-20.10
-36.90
-56.71
-77.24
-96.57
-113.31
-126.46
-135.22
-138.86
-136.36
-126.47
-108.13
-81.46
-48.71
-14.46
15.37
35.57
43.89
41.96
34.49
27.01
23.34
24.23
27.84
31.61
34.11
35.89
38.79
44.26
52.08
60.11
65.38
65.67
60.65
52.11
43.09
36.58
34.42
36.70
41.75
46.61
47.80
42.42
29.14
9.14
-13.81
-34.14
-46.36
-47.15
-36.73
-18.86
0.53
15.62
22.72
21.49
14.80
7.71
5.75
13.43
33.13
64.30
103.44
144.47
179.60
200.83
201.90
180.45
139.47
87.19
34.85
-6.93
-31.80
-39.71
-36.08
-28.71
-24.03
-24.71
-29.52
-35.30
-39.26
-40.47
-39.68
-38.10
-36.36
-34.31
-31.75
-29.23
-28.19
-30.34
-36.72
-47.20
-60.44
-74.70
-88.51
-100.96
-111.45
-119.13
-122.64
-120.40
-111.57
-96.89
-79.08
-62.27
-50.57
-46.59
-50.39
-59.59
-70.36
-78.92
-82.71
-80.95
-74.20
-63.57
-50.05
-34.22
-16.69
1.42
18.29
31.83
40.53
44.15
44.01
42.48
42.05
44.39
49.87
57.52
65.44
71.46
73.72
71.27
64.52
55.52
47.47
43.80
46.95
57.06
71.65
86.36
96.28
97.84
90.10
75.31
58.26
44.38
38.00
40.97
52.40
69.37
87.99
104.03
113.27
111.91
97.52
70.22
33.50
-6.37
-42.34
-69.27
-85.69
-93.65
-96.64
-97.01
-94.58
-87.00
-71.90
-49.10
-21.40
6.02
27.24
37.56
34.64
18.96
-6.51
-36.92
-66.61
-90.59
-105.93
-112.60
-113.39
-112.50
-113.42
-117.00
-120.93
-120.97
-113.37
-97.35
-76.03
-55.30
-41.23
-37.33
-42.99
-53.95
-64.16
-68.23
-63.15
-48.81
-27.39
-2.12
23.74
47.61
67.67
82.77
92.27
96.07
94.75
89.68
82.89
76.54
72.28
70.56
70.53
70.39
68.24
62.91
54.53
44.57
35.24
28.55
25.53
25.74
27.60
29.17
29.04
26.98
23.89
21.32
20.55
22.18
25.92
30.93
36.20
40.90
44.40
46.20
45.78
42.84
37.44
30.13
21.75
13.03
4.25
-4.62
-13.60
-22.30
-29.88
-35.44
-38.44
-38.72
-36.30
-30.95
-22.33
-10.68
2.09
11.97
13.71
2.89
-21.59
-56.22
-93.63
-125.24
-144.52
-149.20
-141.67
-127.43
-112.72
-102.21
-97.79
-98.34
-100.47
-99.79
-92.27
-75.80
-51.19
-22.38
4.59
23.81
31.85
29.26
20.25
10.79
6.04
8.47
17.44
30.25
43.85
56.20
66.62
75.23
82.22
87.31
89.90
89.63
86.78
82.43
78.20
75.67
75.79
78.79
84.22
91.24
98.80
105.45
109.19
107.54
98.47
81.75
60.30
39.92
27.36
27.37
40.17
61.06
82.44
96.98
100.12
91.00
71.69
45.85
17.54
-9.67
-33.18
-52.11
-67.58
-82.17
-98.43
-117.09
-136.04
-151.03
-157.78
-154.12
-141.12
-122.31
-101.87
-83.00
-67.40
-55.73
-48.36
-45.63
-47.45
-52.74
-59.18
-63.56
-62.72
-54.76
-39.82
-20.47
-1.34
11.98
14.46
3.49
-19.69
-49.59
-77.77
-95.47
-96.86
-81.37
-53.94
-22.99
2.88
17.91
20.56
13.07
-0.21
-14.64
-26.35
-32.53
-31.30
-21.80
-4.40
18.94
44.73
68.60
86.30
94.85
93.34
83.26
68.17
52.75
41.37
36.72
38.94
45.61
52.75
56.31
53.71
44.90
32.39
20.61
14.32
17.03
29.49
49.03
69.75
83.87
84.15
67.00
34.77
-3.84
-36.11
-49.90
-38.45
-3.30
46.29
96.89
135.81
154.76
151.19
127.42
88.74
41.99
-5.32
-45.77
-73.26
-84.60
-80.59
-65.68
-46.18
-27.81
-13.96
-5.12
0.42
5.20
11.34
19.69
29.46
38.20
42.39
38.55
24.50
0.21
-32.15
-68.99
-106.27
-140.08
-166.58
-181.81
-182.13
-165.70
-134.23
-93.85
-54.07
-24.60
-11.64
-15.36
-29.89
-45.95
-54.61
-50.64
-33.80
-8.02
20.72
46.69
66.03
77.20
80.67
78.16
71.87
63.82
55.42
47.37
39.73
32.07
23.64
13.66
1.93
-10.50
-20.80
-24.88
-19.05
-2.54
20.76
42.91
55.37
53.67
40.45
24.80
17.79
26.59
50.70
82.49
111.32
128.72
131.27
120.23
98.83
69.99
35.86
-0.90
-36.02
-64.06
-80.63
-84.63
-78.91
-68.64
-58.51
-50.47
-43.30
-34.05
-20.41
-2.42
17.12
33.67
42.57
40.66
27.30
4.62
-23.16
-51.17
-75.32
-93.37
-105.01
-110.90
-111.54
-106.76
-96.37
-81.42
-65.19
-52.71
-48.73
-55.15
-69.52
-85.71
-96.55
-97.02
-86.18
-66.85
-43.62
-20.38
1.01
20.38
37.95
53.08
64.09
69.23
67.97
61.70
53.41
46.37
42.72
42.56
44.15
44.90
42.68
37.01
29.37
22.85
20.94
26.10
38.42
54.99
70.36
78.36
74.56
58.56
34.88
11.66
-2.29
-0.94
16.54
45.67
78.52
106.65
123.47
125.35
111.55
83.71
45.59
3.03
-36.66
-66.32
-81.30
-81.39
-70.99
-57.11
-46.15
-41.10
-40.60
-40.33
-35.77
-24.73
-8.44
9.20
23.40
30.24
27.77
16.10
-2.94
-26.47
-51.03
-72.98
-89.15
-97.43
-97.28
-89.86
-77.75
-64.20
-52.32
-44.24
-40.80
-41.42
-44.60
-48.53
-51.70
-53.32
-53.32
-52.00
-49.56
-45.75
-39.88
-31.07
-18.84
-3.49
13.63
30.32
44.16
53.14
56.35
54.42
49.28
43.65
40.01
39.73
42.58
46.93
50.33
50.33
45.27
34.68
19.65
2.86
-11.63
-19.35
-16.86
-3.69
16.67
37.49
51.36
53.69
45.06
31.29
20.73
20.41
32.87
55.37
81.75
105.49
122.02
129.23
126.51
113.62
90.51
58.53
21.60
-13.80
-40.46
-53.34
-51.87
-40.22
-25.17
-12.88
-6.21
-3.93
-2.16
3.26
14.24
29.36
44.48
54.36
54.59
43.09
20.78
-8.95
-40.64
-68.74
-89.11
-100.10
-102.71
-99.80
-94.90
-90.92
-89.54
-90.02
-90.17
-87.36
-79.65
-66.87
-50.62
-33.44
-17.39
-2.94
12.81
34.66
67.78
115.71
178.96
254.67
337.41
420.25
487.17
522.38
513.88
458.68
365.16
250.03
131.79
24.99
-62.29
-127.89
-172.58
-199.27
-212.20
-216.41
-217.11
-218.36
-221.77
-225.84
-226.65
-218.73
-198.40
-166.11
-127.58
-92.56
-71.24
-69.38
-84.94
-108.11
-124.34
-120.78
-91.92
-42.24
15.43
65.08
93.85
96.50
76.14
42.00
4.83
-27.18
-50.40
-65.31
-74.53
-80.58
-84.46
-85.54
-82.31
-73.42
-58.69
-39.36
-17.66
3.77
22.50
36.76
45.50
48.21
44.86
35.82
22.03
5.23
-12.29
-28.15
-40.55
-48.65
-52.47
-52.08
-47.12
-36.70
-20.27
1.21
24.70
45.44
58.38
60.24
51.00
34.05
15.00
-0.52
-8.79
-8.88
-2.33
8.02
19.25
28.87
34.87
35.70
30.44
19.29
4.20
-11.34
-23.27
-28.48
-26.28
-18.89
-10.66
-6.38
-9.05
-18.61
-31.73
-42.94
-46.38
-38.07
-17.71
10.67
39.17
58.95
63.40
51.02
26.67
0.32
-16.61
-15.82
4.40
37.96
73.97
101.02
111.32
102.94
79.39
47.08
12.27
-20.69
-50.13
-75.08
-94.38
-106.45
-110.22
-106.25
-97.19
-87.08
-75.90
-64.21
-50.91
-34.02
-12.36
12.74
36.86
53.66
57.27
44.89
17.70
-18.39
-54.76
-83.04
-97.98
-99.18
-91.06
-80.72
-74.85
-77.24
-86.74
-98.25
-105.47
-104.12
-93.77
-77.48
-59.75
-44.15
-32.25
-23.50
-16.60
-10.72
-5.62
-0.85
5.12
14.98
31.30
54.60
82.38
109.47
129.84
139.02
135.88
122.90
104.99
87.35
73.53
64.42
58.25
51.59
40.83
23.73
0.63
-25.08
-47.25
-58.54
-52.92
-28.31
11.70
57.91
97.77
119.40
115.83
87.91
44.69
0.63
-28.88
-32.48
-6.11
46.03
113.40
182.45
240.40
278.18
291.68
281.42
250.97
205.21
149.14
87.66
25.87
-30.64
-76.19
-106.04
-117.67
-111.89
-92.64
-65.88
-37.78
-13.21
4.86
15.10
16.88
9.77
-6.36
-30.71
-61.05
-93.96
-126.04
-155.67
-184.03
-214.63
-250.86
-293.07
-336.79
-373.43
-393.52
-390.71
-364.66
-320.97
-268.49
-215.61
-167.22
-123.99
-83.54
-42.84
-0.19
43.86
86.70
124.67
154.30
173.27
181.08
179.20
170.53
158.34
145.41
133.14
121.31
108.32
91.69
68.89
38.41
0.82
-40.39
-78.50
-104.80
-111.10
-93.02
-52.77
0.39
52.42
89.26
102.07
90.79
64.25
36.84
23.33
33.81
70.79
128.90
197.25
262.86
314.14
343.32
347.30
326.95
285.51
227.44
157.81
82.85
10.36
-50.89
-93.03
-111.72
-108.01
-88.43
-62.55
-39.58
-25.25
-20.89
-24.45
-32.70
-43.04
-54.36
-66.54
-79.71
-93.80
-108.80
-125.16
-143.70
-164.61
-186.33
-204.83
-214.39
-209.84
-189.24
-155.44
-115.56
-78.32
-50.68
-35.27
-29.77
-28.52
-25.01
-14.49
4.63
30.68
59.71
87.03
108.69
122.55
128.53
127.97
122.68
114.00
102.55
88.37
71.50
51.90
29.46
3.77
-25.37
-56.69
-86.14
-106.65
-109.90
-90.17
-48.20
7.21
61.39
99.47
112.84
103.10
81.25
62.32
58.35
73.60
104.02
140.73
174.85
200.74
216.26
220.74
212.97
190.99
153.93
104.39
49.07
-2.94
-43.56
-68.96
-80.40
-82.62
-80.61
-76.94
-71.11
-61.08
-45.78
-26.97
-9.44
0.80
-1.13
-17.17
-46.13
-84.81
-129.56
-177.28
-225.49
-271.65
-312.41
-343.65
-361.23
-362.31
-346.48
-315.96
-275.02
-228.63
-181.18
-135.56
-92.91
-52.92
-14.53
23.34
61.35
99.48
136.90
171.94
202.18
224.73
236.96
237.36
226.28
206.24
181.26
155.73
132.83
113.58
96.45
78.11
54.79
24.01
-13.76
-54.25
-89.69
-110.70
-109.79
-84.95
-41.67
8.01
49.63
71.88
71.27
53.61
31.47
18.72
24.93
51.85
93.48
139.13
177.80
201.52
206.64
193.20
163.51
121.06
70.38
17.24
-31.68
-70.00
-93.42
-101.17
-95.91
-82.28
-64.81
-46.92
-30.89
-19.11
-15.07
-23.08
-46.59
-86.11
-137.94
-194.51
-246.52
-286.04
-309.13
-317.02
-314.88
-308.80
-302.83
-297.43
-290.02
-277.19
-257.20
-230.90
-200.82
-169.10
-135.75
-98.66
-55.29
-4.68
51.65
110.52
169.02
226.16
283.04
341.19
400.43
457.52
506.38
539.82
552.24
541.83
511.28
466.90
416.37
366.24
320.32
279.16
240.85
202.31
160.89
115.42
66.67
17.04
-30.11
-71.42
-104.22
-126.99
-139.52
-143.03
-140.07
-133.92
-127.55
-122.09
-115.99
-105.39
-85.98
-55.78
-17.01
23.82
57.98
77.61
78.20
59.33
23.70
-24.25
-79.01
-133.98
-181.46
-213.48
-223.77
-210.00
-175.07
-126.68
-75.26
-31.14
-2.13
7.92
-0.86
-25.28
-60.56
-101.93
-146.00
-191.14
-236.93
-282.76
-326.35
-363.16
-387.23
-393.20
-378.53
-344.80
-297.50
-244.23
-192.26
-146.44
-108.22
-76.15
-47.14
-17.95
13.85
49.52
89.12
131.41
173.77
212.23
242.11
259.32
261.67
249.80
227.01
198.00
167.05
136.47
106.04
73.89
38.31
-0.22
-37.74
-67.12
-80.13
-70.92
-39.22
8.21
59.41
101.68
126.80
134.17
130.55
126.26
130.12
145.95
172.07
203.50
234.97
262.79
284.77
298.75
301.58
289.51
260.13
214.34
157.05
95.96
39.31
-6.50
-38.04
-54.59
-57.24
-47.89
-29.20
-4.91
19.92
39.57
48.90
45.02
28.00
0.43
-33.89
-71.60
-110.61
-150.11
-189.82
-228.95
-265.26
-294.76
-312.51
-314.27
-298.64
-268.28
-229.62
-190.81
-158.82
-137.32
-126.20
-122.94
-124.56
-128.88
-134.40
-139.52
-141.75
-138.09
-126.23
-105.75
-78.30
-46.75
-14.03
17.60
46.66
71.90
92.05
105.97
112.85
112.60
106.01
94.87
82.17
71.92
68.33
73.90
87.60
104.59
117.92
122.04
115.84
103.38
91.78
87.56
93.65
108.96
130.24
154.54
180.31
206.49
230.59
247.57
250.91
235.21
198.79
144.69
79.60
11.71
-51.32
-103.39
-140.29
-159.55
-160.59
-144.85
-115.94
-79.31
-41.51
-9.28
11.60
17.14
5.65
-22.25
-64.07
-116.08
-173.79
-232.00
-284.81
-325.81
-348.97
-349.85
-327.24
-284.09
-227.35
-166.70
-112.17
-71.44
-47.76
-39.12
-39.13
-39.26
-31.82
-12.35
19.27
59.41
102.24
141.82
173.47
194.49
204.11
202.97
192.59
174.81
151.35
123.52
92.46
59.58
27.08
-1.73
-22.65
-31.35
-24.63
-1.89
33.64
74.49
110.30
130.88
130.46
110.83
81.70
57.18
50.02
66.31
103.46
152.35
202.09
244.55
276.15
296.44
305.15
300.29
278.57
238.01
180.56
112.95
45.01
-13.67
-56.63
-81.82
-90.96
-87.96
-77.30
-63.41
-50.38
-42.07
-41.68
-51.01
-69.97
-96.62
-128.22
-162.81
-200.31
-242.25
-289.98
-342.17
-393.48
-435.32
-458.81
-458.48
-434.83
-394.30
-346.39
-299.82
-259.23
-224.40
-191.81
-157.39
-118.72
-75.78
-30.39
14.76
56.77
92.80
120.44
138.28
146.71
147.80
144.57
139.37
132.58
122.42
106.17
82.44
52.91
22.47
-2.04
-14.25
-10.20
10.66
45.26
87.23
127.60
156.42
165.65
152.61
122.37
87.03
61.23
56.04
74.02
108.46
147.07
177.81
193.34
191.89
175.09
145.02
103.02
50.78
-7.76
-65.58
-113.86
-144.84
-154.52
-143.40
-115.38
-75.85
-29.76
18.89
66.79
110.66
146.89
171.58
181.28
173.89
149.29
109.24
56.62
-5.33
-73.18
-142.71
-208.02
-261.54
-295.67
-305.38
-290.51
-256.19
-210.84
-162.57
-116.04
-71.50
-26.49
21.08
70.49
117.80
157.45
184.73
197.49
196.35
183.56
161.61
132.51
97.76
59.31
20.29
-15.06
-42.23
-57.92
-61.27
-54.25
-40.58
-23.98
-6.17
13.83
38.63
69.91
106.18
142.29
171.34
188.46
193.72
192.60
193.07
201.20
218.02
239.19
257.79
268.15
268.30
259.78
245.37
226.58
202.69
171.68
132.19
85.04
33.17
-19.63
-69.98
-115.39
-154.00
-184.00
-203.67
-212.39
-211.55
-204.18
-193.52
-181.41
-167.43
-150.17
-129.62
-109.05
-95.01
-95.08
-114.58
-154.09
-208.88
-270.20
-327.89
-372.83
-398.63
-402.63
-385.94
-352.71
-308.47
-258.36
-205.79
-152.43
-99.48
-49.01
-4.36
31.09
55.82
71.33
81.84
92.35
106.16
123.39
141.19
155.09
161.12
157.41
145.03
127.79
111.25
101.11
101.53
113.79
135.38
160.49
181.00
188.65
177.75
147.83
104.77
59.56
24.82
10.21
18.97
46.90
84.25
119.33
142.16
146.77
131.77
99.84
56.69
9.99
-32.10
-62.90
-79.15
-81.92
-75.78
-66.46
-57.97
-51.05
-43.68
-33.19
-18.50
-1.52
13.13
20.00
14.77
-4.59
-38.12
-84.44
-141.12
-204.09
-266.77
-320.15
-354.62
-363.21
-344.71
-304.71
-253.65
-202.48
-158.27
-121.79
-88.61
-52.77
-10.93
35.12
78.84
111.86
127.98
125.93
110.03
88.44
70.00
61.00
63.87
77.35
97.86
120.99
142.33
157.83
164.44
161.16
150.24
137.07
128.20
128.73
139.58
156.70
172.60
179.69
173.80
156.11
132.66
111.60
99.49
98.24
104.09
109.36
106.03
89.66
61.41
27.28
-5.06
-29.99
-46.17
-56.04
-63.25
-69.97
-75.74
-78.41
-76.08
-68.66
-57.99
-47.10
-38.46
-33.28
-31.68
-33.21
-37.66
-45.03
-55.17
-67.32
-79.99
-91.23
-99.24
-102.89
-101.95
-97.12
-89.88
-82.30
-76.76
-75.46
-79.57
-88.57
-99.88
-109.50
-113.33
-108.65
-95.00
-74.01
-48.52
-21.47
4.71
28.08
47.06
60.40
67.56
69.31
67.82
66.18
67.22
72.40
80.92
89.86
95.26
93.64
83.69
67.02
47.97
32.12
24.30
26.69
37.89
53.09
65.16
66.55
51.71
19.45
-25.67
-73.58
-111.07
-125.76
-110.53
-66.49
-3.26
63.80
118.33
147.73
146.41
116.63
66.95
9.21
-44.85
-86.24
-110.28
-116.60
-108.08
-89.35
-65.43
-41.02
-20.13
-5.72
0.83
0.16
-5.09
-11.11
-14.33
-13.10
-8.55
-4.14
-3.96
-10.60
-23.60
-39.12
-51.21
-53.99
-43.96
-21.53
8.75
39.50
63.08
74.42
73.03
63.01
51.05
43.26
42.36
46.89
52.68
55.75
54.86
52.08
51.32
55.49
64.32
73.96
78.61
73.01
54.27
22.34
-20.19
-68.93
-118.23
-161.54
-192.19
-204.64
-196.11
-167.61
-123.93
-72.25
-20.21
25.84
61.74
85.18
94.84
89.68
69.28
35.12
-8.11
-52.32
-87.69
-105.79
-102.79
-81.12
-48.60
-15.06
11.56
27.83
35.06
37.29
38.52
40.60
43.19
45.00
45.21
44.34
43.78
44.68
46.85
48.39
46.36
38.40
24.43
7.29
-7.89
-15.92
-13.90
-2.72
13.25
28.21
37.46
39.39
35.59
29.63
25.02
23.80
26.02
30.37
35.23
39.44
42.62
44.94
46.87
48.61
49.77
49.28
45.44
36.49
21.27
-0.52
-28.58
-62.68
-103.15
-150.27
-202.72
-256.23
-303.39
-335.42
-345.38
-331.02
-295.52
-245.73
-189.34
-132.85
-81.37
-39.39
-11.22
0.44
-3.13
-15.22
-24.82
-20.25
6.28
55.90
123.21
198.97
273.25
338.02
387.88
419.87
432.99
427.86
406.44
371.63
326.63
274.59
218.68
162.23
108.59
60.68
20.54
-10.82
-33.22
-47.26
-54.58
-58.40
-63.35
-74.10
-93.23
-119.50
-148.01
-172.51
-188.78
-196.67
-199.69
-202.06
-205.27
-206.46
-199.86
-180.24
-146.63
-103.56
-59.41
-22.63
1.92
14.42
19.04
21.26
25.48
33.44
44.51
56.92
68.37
76.15
76.86
66.53
42.41
5.55
-37.37
-74.94
-95.28
-91.92
-67.70
-34.13
-6.04
5.74
-0.63
-17.96
-34.85
-42.29
-37.96
-26.15
-13.78
-5.67
-2.03
0.55
5.96
15.53
27.24
37.15
42.10
41.66
38.04
34.63
33.65
34.80
35.40
32.01
22.64
8.14
-7.79
-20.15
-24.83
-20.44
-9.18
3.70
11.17
6.37
-15.19
-53.78
-104.59
-158.28
-203.41
-229.92
-232.27
-211.04
-172.15
-124.42
-76.40
-34.11
-0.17
25.78
46.06
64.08
83.51
107.38
137.30
172.87
211.72
250.30
284.90
312.34
330.32
337.44
333.25
318.50
295.40
267.24
237.33
207.48
177.02
142.95
101.74
51.82
-4.41
-60.63
-108.72
-142.20
-159.09
-162.79
-160.45
-159.72
-165.61
-178.72
-195.60
-210.55
-218.01
-214.53
-199.83
-176.85
-150.87
-127.82
-112.23
-105.52
-105.28
-106.24
-102.57
-90.26
-68.53
-39.79
-8.44
20.66
43.47
57.56
62.40
59.51
52.21
44.94
42.12
46.98
60.77
82.69
110.51
141.04
170.37
193.78
205.94
201.82
178.48
136.96
82.84
25.06
-26.83
-65.75
-88.95
-97.89
-96.51
-88.90
-77.75
-64.38
-49.73
-35.59
-24.87
-20.77
-25.13
-37.16
-53.44
-69.09
-79.81
-83.46
-80.71
-74.22
-67.39
-62.93
-62.29
-65.70
-72.49
-81.48
-90.90
-98.24
-100.46
-94.91
-80.53
-58.67
-32.76
-7.11
14.47
29.70
37.88
39.21
34.12
23.01
6.62
-13.28
-33.44
-49.64
-57.94
-56.36
-46.05
-31.07
-16.72
-7.09
-3.03
-1.79
1.67
12.13
31.67
58.50
87.89
114.32
133.62
144.22
146.87
143.65
136.74
127.69
117.33
106.02
93.85
80.83
66.94
52.26
37.17
22.45
9.33
-0.78
-6.72
-8.20
-6.09
-2.26
1.15
2.69
2.23
0.78
-0.48
-1.38
-3.19
-8.15
-17.97
-32.28
-48.11
-60.82
-65.99
-61.54
-48.78
-31.77
-15.77
-5.73
-5.16
-16.00
-38.01
-68.05
-99.39
-122.47
-127.77
-110.27
-73.00
-27.21
12.00
32.80
32.60
19.29
6.80
7.73
26.84
59.25
93.69
118.30
125.32
112.51
81.76
37.13
-16.10
-71.05
-118.93
-150.27
-157.94
-140.26
-102.35
-54.60
-8.74
26.12
45.96
51.86
48.13
39.94
31.59
25.88
24.28
27.07
33.19
40.17
44.53
43.04
34.33
20.22
5.71
-2.64
0.44
16.28
41.15
67.61
87.46
95.52
91.23
78.53
63.64
52.22
47.24
48.37
52.91
57.11
58.60
56.25
50.73
43.41
35.41
26.52
14.98
-1.61
-25.37
-55.71
-91.03
-128.86
-166.84
-203.05
-235.49
-261.35
-277.06
-279.69
-266.74
-239.54
-202.05
-159.22
-114.85
-70.47
-26.55
18.57
54.34
74.11
71.32
45.07
2.94
-40.38
-68.64
-70.95
-46.42
-4.75
40.73
77.87
101.42
113.70
121.12
129.13
138.86
147.24
149.42
143.83
132.14
118.98
108.95
103.86
101.80
98.17
88.70
71.83
50.53
30.05
15.25
8.09
6.75
7.06
5.07
-0.74
-9.05
-16.62
-21.07
-22.32
-22.84
-26.13
-34.59
-47.86
-62.57
-73.80
-76.91
-69.66
-52.96
-30.38
-6.90
12.46
23.59
23.77
12.06
-10.22
-38.89
-67.10
-86.69
-91.27
-79.08
-54.40
-26.23
-4.47
4.77
2.01
-6.32
-11.83
-9.01
1.76
14.93
23.53
23.48
15.74
5.22
-2.71
-5.61
-5.12
-5.16
-8.54
-14.61
-19.31
-17.64
-6.82
11.86
33.87
54.05
69.30
79.65
87.37
95.08
103.77
112.21
117.76
117.76
110.75
96.78
77.27
54.56
31.70
11.95
-2.08
-9.47
-11.76
-12.62
-16.26
-25.33
-39.32
-54.65
-66.45
-71.06
-67.88
-59.44
-49.77
-42.14
-37.40
-33.95
-29.07
-20.75
-8.75
5.33
19.00
30.03
36.84
38.21
32.73
18.81
-4.03
-33.46
-63.61
-86.52
-95.35
-88.03
-68.89
-46.99
-31.72
-28.24
-35.48
-47.76
-58.80
-65.18
-67.34
-67.67
-67.77
-66.95
-63.21
-55.72
-46.40
-39.30
-37.58
-40.55
-42.77
-36.26
-14.86
22.02
68.27
113.56
147.76
164.74
163.88
149.22
126.85
102.56
80.69
64.17
54.97
54.23
61.71
75.35
91.48
105.88
115.35
119.08
118.79
117.80
119.28
124.81
133.67
143.49
151.63
156.58
158.53
158.74
158.20
156.55
151.96
142.13
125.81
103.73
78.66
54.33
34.03
19.69
11.63
8.84
9.65
11.97
13.47
11.81
5.20
-6.74
-22.29
-37.78
-48.96
-53.03
-50.02
-43.46
-39.20
-43.24
-59.76
-90.23
-133.79
-188.37
-250.95
-316.97
-379.54
-429.53
-457.25
-455.50
-422.54
-363.08
-287.19
-207.38
-135.07
-77.86
-38.32
-14.63
-2.53
2.58
4.39
5.63
9.13
18.86
39.80
76.06
128.09
190.27
251.60
299.18
323.03
319.79
293.28
252.25
207.02
166.57
137.08
121.77
120.59
130.16
144.27
155.61
157.93
148.51
128.65
102.34
73.75
44.84
14.91
-18.12
-55.28
-95.13
-133.48
-164.98
-185.65
-194.67
-195.03
-192.02
-190.87
-194.39
-202.32
-211.82
-219.29
-221.99
-218.70
-209.58
-195.54
-177.98
-158.72
-140.00
-123.75
-110.56
-98.70
-84.45
-64.13
-36.35
-3.72
27.67
50.84
61.18
58.53
47.09
33.55
23.98
21.65
26.53
36.25
47.98
59.71
70.54
80.10
87.73
92.11
91.88
86.48
76.76
64.87
53.41
44.29
37.92
33.14
27.87
20.17
9.24
-4.22
-18.19
-30.09
-37.76
-40.41
-38.79
-34.98
-31.29
-29.27
-29.00
-29.20
-28.00
-24.06
-17.33
-9.04
-1.17
4.50
7.13
6.98
5.24
3.45
2.95
4.52
8.23
13.45
19.12
24.16
27.86
30.09
31.28
32.16
33.42
35.49
38.43
41.99
45.79
49.25
51.71
52.41
50.58
45.60
37.27
26.00
12.94
-0.13
-11.14
-18.25
-20.43
-17.78
-11.47
-3.35
4.68
11.15
15.31
16.96
16.26
13.59
9.54
4.92
0.79
-1.78
-2.13
-0.26
3.05
6.55
8.93
9.34
7.61
4.25
0.15
-3.81
-7.08
-9.59
-11.66
-13.65
-15.72
-17.59
-18.74
-18.67
-17.32
-15.17
-13.13
-12.23
-13.23
-16.64
-22.73
-31.58
-42.99
-56.08
-69.04
-79.27
-83.97
-81.08
-70.16
-52.51
-30.73
-7.76
14.05
33.28
49.27
61.63
69.92
73.66
72.66
67.43
59.23
49.85
41.10
34.21
29.56
26.73
24.76
22.68
19.91
16.47
12.93
10.11
8.67
8.77
10.00
11.59
12.84
13.49
13.83
14.55
16.31
19.37
23.29
26.91
28.55
26.51
19.71
8.24
-6.35
-21.40
-33.90
-41.55
-43.50
-40.59
-34.73
-28.04
-22.08
-17.46
-14.10
-11.70
-10.15
-9.55
-10.00
-11.37
-13.19
-14.86
-15.89
-16.04
-15.32
-13.92
-11.94
-9.49
-6.67
-3.60
-0.41
2.86
6.29
9.98
13.87
17.56
20.34
21.45
20.44
17.28
12.27
5.59
-3.03
-14.11
-28.05
-44.46
-61.78
-77.55
-89.06
-94.26
-92.40
-84.09
-70.97
-55.12
-38.41
-22.27
-7.49
5.64
17.22
27.44
36.40
43.98
49.88
53.87
55.99
56.68
56.58
56.39
56.66
57.67
59.50
62.01
64.82
67.31
68.60
67.82
64.42
58.41
50.40
41.26
31.65
21.75
11.23
-0.24
-12.53
-24.77
-35.50
-43.26
-47.16
-47.19
-44.22
-39.45
-33.95
-28.36
-22.84
-17.45
-12.48
-8.55
-6.54
-7.06
-10.06
-14.69
-19.47
-22.94
-24.22
-23.31
-20.95
-18.06
-15.16
-12.19
-8.71
-4.38
0.65
5.59
9.35
10.92
9.65
5.14
-2.91
-14.82
-30.56
-49.15
-68.25
-84.22
-92.98
-91.28
-77.82
-53.89
-23.02
10.02
40.53
64.99
81.69
90.74
93.58
92.13
88.18
82.83
76.52
69.37
61.76
54.47
48.58
45.00
43.94
44.91
46.96
49.30
51.47
53.04
52.96
49.37
40.22
24.57
3.66
-19.01
-38.97
-52.69
-59.04
-59.16
-55.13
-48.34
-38.83
-26.10
-10.68
4.89
16.54
20.53
15.45
3.08
-12.34
-26.08
-34.83
-37.66
-35.89
-31.96
-28.42
-27.07
-28.54
-32.38
-37.45
-42.50
-46.78
-50.34
-53.77
-57.66
-62.02
-66.05
-68.67
-69.09
-67.42
-64.58
-61.58
-58.79
-55.57
-50.65
-42.99
-32.69
-21.15
-10.47
-2.43
2.31
4.61
6.33
9.43
15.22
23.75
33.99
44.31
53.06
59.03
61.68
61.11
57.85
52.73
46.61
40.30
34.59
30.15
27.59
27.34
29.56
33.93
39.62
45.27
49.39
50.68
48.35
42.39
33.40
22.41
10.63
-0.75
-10.63
-18.04
-22.22
-22.87
-20.16
-14.90
-8.28
-1.69
3.66
6.92
7.71
6.13
2.65
-1.96
-6.76
-10.81
-13.41
-14.33
-13.84
-12.62
-11.54
-11.30
-12.23
-14.27
-16.99
-19.91
-22.64
-25.06
-27.23
-29.25
-31.07
-32.38
-32.76
-31.84
-29.58
-26.27
-22.59
-19.38
-17.59
-18.12
-21.69
-28.63
-38.45
-49.63
-59.63
-65.42
-64.42
-55.46
-39.31
-18.50
3.65
24.07
40.84
53.35
61.97
67.39
70.25
71.04
70.24
68.52
66.63
65.10
63.95
62.64
60.33
56.35
50.60
43.66
36.53
30.28
25.56
22.43
20.44
18.82
16.86
14.02
10.04
4.92
-1.23
-8.30
-16.17
-24.73
-33.81
-43.14
-52.22
-60.33
-66.47
-69.51
-68.47
-62.77
-52.58
-39.01
-23.93
-9.59
2.01
9.62
13.00
12.88
10.53
7.25
3.99
1.19
-1.18
-3.33
-5.55
-7.99
-10.66
-13.46
-16.22
-18.82
-21.18
-23.36
-25.55
-27.94
-30.65
-33.55
-36.20
-37.92
-37.97
-35.74
-31.00
-24.06
-15.80
-7.52
-0.57
3.99
5.80
5.42
4.25
4.12
6.70
12.85
22.32
33.83
45.48
55.36
61.99
64.57
62.88
57.21
48.17
36.69
23.91
11.05
-0.77
-10.48
-16.98
-19.11
-15.96
-7.50
4.84
18.26
29.43
35.84
36.89
33.99
29.64
26.03
23.95
22.76
21.20
18.47
14.70
10.66
6.94
3.34
-1.05
-7.21
-15.37
-24.63
-33.13
-38.61
-39.23
-33.98
-22.95
-7.18
11.53
30.91
48.39
61.43
67.98
66.88
58.25
43.55
25.25
6.22
-11.01
-24.76
-34.44
-40.28
-42.99
-43.36
-42.08
-39.72
-36.83
-33.99
-31.72
-30.29
-29.59
-29.15
-28.33
-26.67
-24.13
-21.19
-18.66
-17.29
-17.36
-18.48
-19.69
-19.88
-18.23
-14.70
-10.11
-5.92
-3.74
-4.76
-9.24
-16.28
-24.00
-29.91
-31.70
-27.78
-17.76
-2.48
16.30
36.42
55.85
72.93
86.46
95.53
99.40
97.50
89.58
76.00
57.96
37.62
17.86
1.90
-7.27
-7.46
2.18
20.87
46.12
73.91
99.29
117.35
124.32
118.47
100.62
73.79
42.30
10.56
-18.02
-41.52
-59.40
-72.14
-80.67
-86.03
-89.13
-90.67
-91.03
-90.29
-88.19
-84.37
-78.50
-70.43
-60.35
-48.77
-36.50
-24.44
-13.48
-4.13
3.51
9.90
15.86
22.40
30.47
40.71
53.43
68.38
84.76
101.19
115.82
126.65
131.85
130.17
121.10
105.01
83.07
57.13
29.57
2.90
-20.62
-39.47
-53.11
-61.94
-66.86
-68.92
-68.85
-67.07
-63.78
-59.25
-53.88
-48.21
-42.71
-37.71
-33.32
-29.60
-26.70
-24.86
-24.38
-25.39
-27.68
-30.62
-33.26
-34.58
-33.85
-30.94
-26.42
-21.44
-17.37
-15.37
-15.99
-19.00
-23.52
-28.27
-31.98
-33.64
-32.59
-28.57
-21.64
-12.20
-1.01
10.90
22.36
32.51
41.01
48.18
54.73
61.25
67.75
73.47
77.07
77.26
73.20
64.86
52.84
38.17
22.00
5.61
-9.65
-22.35
-31.21
-35.54
-35.51
-32.22
-27.34
-22.55
-18.99
-17.04
-16.44
-16.72
-17.51
-18.61
-19.86
-20.84
-20.81
-18.87
-14.29
-6.88
2.93
14.19
25.75
36.39
45.00
50.63
52.61
50.75
45.58
38.36
30.71
24.15
19.49
16.62
14.62
12.30
8.63
3.27
-3.44
-10.63
-17.28
-22.64
-26.37
-28.65
-29.99
-31.01
-32.17
-33.63
-35.30
-36.88
-38.06
-38.58
-38.33
-37.27
-35.55
-33.48
-31.62
-30.66
-31.07
-32.86
-35.27
-36.88
-36.12
-31.84
-23.90
-13.28
-1.72
8.97
17.52
23.61
27.70
30.67
33.25
35.78
38.16
40.00
40.90
40.63
39.11
36.38
32.50
27.58
21.83
15.67
9.80
5.02
2.07
1.27
2.41
4.73
7.20
8.83
8.99
7.52
4.62
0.71
-3.77
-8.38
-12.63
-15.91
-17.59
-17.15
-14.46
-9.88
-4.18
1.63
6.68
10.29
12.05
11.71
9.19
4.61
-1.46
-7.94
-13.33
-16.18
-15.62
-11.74
-5.67
0.80
5.87
8.26
7.62
4.52
0.12
-4.31
-7.84
-10.09
-11.27
-11.94
-12.62
-13.55
-14.63
-15.57
-16.07
-16.06
-15.75
-15.56
-15.99
-17.58
-20.77
-25.89
-32.86
-41.00
-49.07
-55.40
-58.51
-57.52
-52.42
-44.07
-33.70
-22.54
-11.39
-0.59
9.86
20.07
30.02
39.41
47.67
54.09
58.04
59.23
57.89
54.72
50.70
46.76
43.56
41.34
40.04
39.39
39.07
38.73
38.01
36.51
33.85
29.79
24.32
17.75
10.67
3.73
-2.41
-7.26
-10.58
-12.27
-12.43
-11.33
-9.42
-7.41
-6.17
-6.49
-8.80
-12.90
-17.97
-22.80
-26.22
-27.50
-26.62
-24.23
-21.36
-19.03
-17.87
-17.94
-18.83
-19.88
-20.54
-20.59
-20.11
-19.38
-18.63
-17.93
-17.15
-16.11
-14.74
-13.12
-11.51
-10.30
-10.00
-11.20
-14.47
-20.09
-27.78
-36.45
-44.36
-49.50
-50.29
-46.08
-37.32
-25.25
-11.33
3.31
18.08
32.77
47.13
60.59
72.24
80.95
85.84
86.45
82.89
75.73
65.80
54.13
41.77
29.70
18.70
9.26
1.61
-4.21
-8.11
-9.94
-9.59
-7.18
-3.35
0.81
4.04
5.34
4.46
1.99
-0.93
-3.14
-3.97
-3.48
-2.28
-1.12
-0.52
-0.60
-1.18
-2.02
-2.98
-4.06
-5.28
-6.55
-7.73
-8.70
-9.48
-10.29
-11.41
-13.03
-15.07
-17.15
-18.70
-19.24
-18.52
-16.68
-14.21
-11.75
-9.88
-8.87
-8.74
-9.23
-10.10
-11.23
-12.70
-14.80
-17.87
-22.21
-27.87
-34.50
-41.30
-47.03
-50.39
-50.43
-46.98
-40.73
-33.01
-25.25
-18.32
-12.28
-6.46
0.09
8.09
17.57
27.94
38.11
46.88
53.21
56.51
56.62
53.91
49.20
43.55
38.16
34.01
31.68
31.25
32.37
34.39
36.59
38.26
38.74
37.45
33.99
28.24
20.64
12.14
4.13
-2.10
-5.74
-6.85
-6.26
-5.25
-4.99
-6.15
-8.74
-12.25
-16.00
-19.32
-21.74
-22.92
-22.62
-20.67
-17.12
-12.30
-6.93
-2.00
1.51
2.88
1.91
-1.08
-5.40
-10.31
-15.22
-19.79
-23.84
-27.21
-29.68
-31.04
-31.30
-30.85
-30.40
-30.77
-32.57
-35.96
-40.54
-45.52
-49.91
-52.77
-53.45
-51.66
-47.52
-41.50
-34.22
-26.22
-17.75
-8.69
1.34
12.69
25.29
38.43
50.78
60.64
66.45
67.31
63.31
55.59
45.97
36.43
28.51
22.93
19.71
18.40
18.47
19.50
21.19
23.13
24.72
25.18
23.80
20.23
14.70
8.07
1.67
-3.15
-5.38
-4.76
-1.80
2.31
6.15
8.50
8.75
6.89
3.40
-1.05
-5.83
-10.39
-14.22
-16.82
-17.80
-17.08
-15.04
-12.52
-10.49
-9.66
-10.17
-11.54
-12.95
-13.70
-13.60
-12.99
-12.55
-12.90
-14.20
-16.10
-17.94
-19.11
-19.39
-19.00
-18.52
-18.61
-19.79
-22.31
-26.02
-30.53
-35.10
-38.85
-40.93
-40.76
-38.26
-33.78
-27.99
-21.46
-14.46
-6.83
1.79
11.64
22.59
33.93
44.46
52.75
57.47
57.77
53.61
45.85
36.06
26.11
17.61
11.46
7.78
6.11
5.89
6.83
8.95
12.41
17.11
22.47
27.54
31.30
33.22
33.42
32.66
31.91
31.85
32.57
33.54
33.96
33.05
30.37
25.83
19.55
11.75
2.70
-7.15
-17.11
-26.16
-33.24
-37.52
-38.79
-37.55
-34.86
-31.92
-29.67
-28.57
-28.53
-29.17
-30.10
-31.17
-32.50
-34.38
-37.04
-40.44
-44.22
-47.77
-50.37
-51.38
-50.40
-47.36
-42.58
-36.86
-31.35
-27.41
-26.16
-28.06
-32.50
-37.79
-41.51
-41.33
-35.79
-24.78
-9.50
8.07
25.93
42.64
57.51
70.37
81.16
89.62
95.26
97.54
96.18
91.32
83.46
73.38
62.00
50.28
39.19
29.66
22.39
17.68
15.35
14.68
14.77
14.79
14.24
13.06
11.45
9.60
7.47
4.71
0.76
-4.86
-12.31
-21.19
-30.48
-38.60
-43.79
-44.59
-40.43
-31.97
-21.09
-10.31
-2.00
2.40
2.77
0.16
-3.89
-7.95
-11.23
-13.56
-15.23
-16.59
-17.85
-19.08
-20.31
-21.60
-23.10
-25.03
-27.58
-30.86
-34.82
-39.21
-43.63
-47.57
-50.44
-51.73
-50.98
-47.89
-42.42
-34.83
-25.75
-16.11
-6.92
0.98
7.10
11.37
13.97
15.09
14.85
13.31
10.77
7.95
6.03
6.34
9.89
16.91
26.63
37.51
47.70
55.68
60.57
62.18
60.82
56.97
51.12
43.80
35.73
27.88
21.35
17.12
15.71
16.94
19.92
23.28
25.44
25.02
21.10
13.60
3.34
-7.99
-18.23
-25.27
-27.73
-25.29
-18.80
-9.95
-0.84
6.55
10.76
11.11
7.76
1.70
-5.62
-12.65
-18.19
-21.67
-23.23
-23.41
-22.87
-22.10
-21.36
-20.70
-20.16
-19.79
-19.67
-19.80
-20.06
-20.27
-20.21
-19.68
-18.61
-17.14
-15.56
-14.34
-13.93
-14.61
-16.45
-19.31
-22.99
-27.36
-32.33
-37.67
-42.84
-46.92
-48.77
-47.48
-42.67
-34.58
-23.96
-11.69
1.52
15.27
29.29
43.28
56.68
68.58
77.95
83.79
85.45
82.88
76.66
67.92
58.12
48.73
40.87
35.19
31.78
30.28
29.97
29.89
28.93
25.98
20.22
11.38
0.05
-12.34
-23.74
-32.11
-36.00
-34.99
-29.92
-22.56
-15.17
-9.76
-7.61
-8.97
-13.07
-18.57
-24.01
-28.35
-31.04
-32.09
-31.70
-30.11
-27.46
-23.93
-19.88
-15.90
-12.69
-10.85
-10.65
-11.95
-14.31
-17.06
-19.55
-21.25
-21.85
-21.34
-19.95
-18.09
-16.28
-14.98
-14.57
-15.23
-16.91
-19.14
-21.15
-21.96
-20.74
-17.17
-11.67
-5.29
0.75
5.61
9.27
12.58
16.86
23.32
32.47
43.80
55.85
66.67
74.39
77.82
76.75
71.90
64.56
56.06
47.45
39.31
31.91
25.38
19.88
15.56
12.37
9.93
7.42
3.82
-1.73
-9.58
-19.32
-29.87
-39.65
-47.08
-50.86
-50.38
-45.81
-38.11
-28.80
-19.66
-12.24
-7.53
-5.69
-6.08
-7.59
-9.05
-9.61
-8.94
-7.15
-4.60
-1.67
1.32
4.05
6.20
7.35
7.09
5.17
1.66
-2.96
-7.88
-12.13
-14.95
-16.03
-15.74
-14.97
-14.81
-16.16
-19.41
-24.24
-29.79
-34.86
-38.28
-39.27
-37.59
-33.64
-28.23
-22.33
-16.77
-11.92
-7.66
-3.47
1.35
7.45
15.13
24.22
33.99
43.19
50.33
53.98
53.26
48.03
39.03
27.62
15.45
4.14
-4.99
-11.07
-13.73
-13.14
-10.02
-5.45
-0.74
2.89
4.51
3.73
0.77
-3.57
-8.05
-11.42
-12.64
-11.27
-7.47
-1.95
4.30
10.23
14.94
17.80
18.57
17.49
15.29
12.95
11.50
11.54
13.12
15.70
18.45
20.60
21.63
21.39
20.00
17.74
14.87
11.66
8.24
4.67
1.04
-2.56
-5.85
-8.46
-10.04
-10.49
-10.09
-9.60
-10.09
-12.65
-18.13
-26.72
-37.86
-50.04
-61.05
-68.43
-70.15
-65.32
-54.46
-39.47
-22.96
-7.45
5.22
14.20
19.49
21.65
21.54
20.16
18.54
17.59
17.90
19.46
21.68
23.53
23.98
22.34
18.56
13.19
7.24
1.83
-2.07
-3.78
-3.11
-0.22
4.31
9.69
15.01
19.46
22.49
23.84
23.69
22.45
20.83
19.62
19.67
21.80
26.53
33.95
43.35
53.25
61.48
65.80
64.50
57.06
44.39
28.53
12.02
-2.91
-14.91
-23.65
-29.55
-33.39
-35.90
-37.59
-38.76
-39.58
-40.16
-40.59
-40.83
-40.81
-40.44
-39.72
-38.73
-37.57
-36.32
-35.02
-33.68
-32.38
-31.32
-30.83
-31.38
-33.45
-37.41
-43.26
-50.40
-57.46
-62.42
-63.17
-58.18
-47.19
-31.38
-12.98
5.53
22.28
36.38
47.84
57.00
64.08
69.02
71.65
72.03
70.63
68.21
65.39
62.39
58.92
54.51
48.85
42.19
35.29
29.13
24.47
21.50
19.79
18.50
16.75
13.98
10.14
5.61
0.94
-3.33
-6.95
-9.80
-11.94
-13.39
-14.22
-14.56
-14.72
-15.07
-15.94
-17.37
-19.11
-20.67
-21.64
-21.88
-21.63
-21.28
-21.18
-21.37
-21.59
-21.40
-20.50
-18.85
-16.68
-14.46
-12.65
-11.65
-11.71
-12.86
-14.89
-17.35
-19.67
-21.31
-22.00
-21.88
-21.45
-21.43
-22.46
-24.89
-28.57
-32.97
-37.17
-40.12
-40.93
-39.25
-35.40
-30.39
-25.50
-21.68
-19.02
-16.51
-12.39
-4.87
7.06
23.15
41.88
60.87
77.61
90.01
96.80
97.60
92.86
83.60
71.22
57.24
43.17
30.30
19.51
11.23
5.32
1.17
-2.13
-5.54
-9.66
-14.65
-20.03
-24.80
-27.62
-27.02
-21.92
-12.06
1.54
16.56
29.77
38.08
39.56
34.24
24.02
11.82
0.37
-8.86
-15.90
-21.81
-27.78
-34.36
-41.28
-47.75
-52.99
-56.47
-57.82
-56.59
-52.09
-43.61
-31.02
-15.25
1.65
17.03
28.60
35.24
37.33
36.46
34.50
32.88
32.07
31.71
31.01
29.28
26.27
22.19
17.59
13.04
9.02
5.84
3.61
2.28
1.61
1.27
0.83
-0.01
-1.46
-3.52
-6.07
-8.95
-11.96
-14.98
-17.84
-20.36
-22.34
-23.65
-24.25
-24.25
-23.76
-22.88
-21.58
-19.82
-17.54
-14.72
-11.46
-8.07
-5.14
-3.45
-3.67
-6.01
-9.91
-14.19
-17.44
-18.72
-17.96
-15.90
-13.58
-11.76
-10.51
-9.40
-8.06
-6.65
-5.90
-6.75
-9.78
-14.75
-20.69
-26.21
-30.01
-31.29
-29.90
-26.25
-20.97
-14.65
-7.65
-0.08
8.05
16.60
25.17
33.21
40.20
45.91
50.57
54.73
59.15
64.51
71.14
78.97
87.49
95.66
102.05
104.96
102.82
94.74
80.85
62.41
41.55
20.55
1.35
-14.91
-27.81
-37.49
-44.31
-48.73
-51.32
-52.74
-53.76
-55.02
-56.80
-58.94
-60.94
-62.20
-62.27
-61.03
-58.53
-54.91
-50.26
-44.52
-37.68
-29.91
-21.71
-13.96
-7.86
-4.56
-4.91
-9.13
-16.60
-25.94
-35.27
-42.61
-46.33
-45.54
-40.23
-31.27
-20.09
-8.30
2.65
11.84
18.83
23.67
26.60
27.97
28.23
27.97
27.91
28.75
30.85
34.02
37.46
40.12
41.20
40.59
39.03
37.78
38.01
40.23
43.99
48.05
50.88
51.24
48.62
43.30
36.15
28.25
20.67
14.29
9.71
7.19
6.59
7.31
8.45
9.15
8.93
7.89
6.61
5.67
5.19
4.63
2.94
-0.88
-7.19
-15.48
-24.58
-33.12
-40.14
-45.20
-48.45
-50.26
-50.99
-50.96
-50.40
-49.54
-48.49
-47.18
-45.25
-42.26
-37.90
-32.29
-26.05
-20.17
-15.64
-13.10
-12.58
-13.55
-15.16
-16.62
-17.58
-18.32
-19.66
-22.70
-28.33
-36.60
-46.44
-55.54
-60.90
-59.65
-50.13
-32.50
-8.81
17.59
43.10
64.77
80.79
90.52
94.11
92.21
85.81
76.28
65.31
54.71
45.99
40.02
36.86
35.85
36.00
36.30
35.98
34.55
31.84
27.90
22.95
17.37
11.61
6.14
1.31
-2.64
-5.65
-7.80
-9.35
-10.69
-12.34
-14.82
-18.48
-23.36
-29.07
-35.00
-40.61
-45.79
-51.01
-57.09
-64.71
-73.98
-84.07
-93.42
-100.22
-103.01
-101.20
-95.16
-86.19
-76.17
-67.31
-61.77
-61.08
-65.44
-73.16
-80.70
-83.52
-77.65
-61.30
-35.75
-4.93
26.22
53.82
76.44
95.04
111.80
128.36
144.79
159.65
170.97
177.48
179.23
177.35
173.29
168.04
161.87
154.51
145.67
135.51
124.74
114.37
105.27
97.75
91.20
84.23
75.06
62.30
45.58
25.77
4.55
-16.35
-35.85
-53.78
-70.40
-85.69
-98.86
-108.57
-113.58
-113.53
-109.19
-102.13
-94.01
-85.90
-78.19
-70.84
-63.95
-57.95
-53.44
-50.70
-49.38
-48.58
-47.19
-44.53
-40.66
-36.37
-32.73
-30.62
-30.31
-31.44
-33.21
-34.66
-35.01
-33.75
-30.79
-26.35
-20.95
-15.19
-9.62
-4.60
-0.27
3.40
6.46
8.92
10.73
11.87
12.44
12.74
13.18
14.24
16.39
20.02
25.40
32.58
41.24
50.57
59.24
65.70
68.50
66.77
60.55
50.76
38.88
26.47
14.66
4.00
-5.51
-14.04
-21.65
-28.15
-33.23
-36.63
-38.45
-39.14
-39.27
-39.33
-39.46
-39.45
-38.93
-37.65
-35.72
-33.54
-31.71
-30.73
-30.79
-31.74
-33.16
-34.55
-35.49
-35.67
-34.92
-33.14
-30.33
-26.62
-22.37
-18.08
-14.31
-11.37
-9.11
-6.85
-3.53
2.00
10.45
21.81
35.26
49.38
62.57
73.49
81.39
86.11
87.94
87.33
84.64
80.01
73.35
64.46
53.29
40.11
25.72
11.35
-1.65
-12.21
-19.99
-25.54
-30.02
-34.57
-39.75
-45.23
-49.90
-52.11
-49.93
-41.44
-25.35
-1.80
26.76
55.51
78.17
89.09
85.50
68.72
43.66
16.78
-6.47
-23.39
-34.12
-40.50
-44.51
-47.31
-49.28
-50.58
-51.53
-52.53
-53.63
-54.07
-52.36
-46.70
-35.79
-19.39
1.50
24.89
48.23
68.88
84.59
93.79
95.82
91.01
80.59
66.40
50.34
33.94
18.12
3.26
-10.48
-22.81
-33.19
-41.03
-45.95
-48.14
-48.26
-47.21
-45.75
-44.20
-42.49
-40.35
-37.60
-34.35
-30.98
-27.97
-25.67
-24.18
-23.33
-22.81
-22.30
-21.52
-20.37
-18.92
-17.43
-16.29
-15.85
-16.28
-17.55
-19.35
-21.18
-22.42
-22.41
-20.46
-15.92
-8.35
2.23
15.16
29.09
42.26
52.88
59.62
61.92
59.95
54.46
46.46
37.04
27.22
17.91
9.89
3.73
-0.28
-2.19
-2.34
-1.26
0.49
2.32
3.63
3.84
2.50
-0.42
-4.38
-8.16
-10.28
-9.59
-5.80
0.36
7.41
13.82
18.57
21.40
22.53
22.29
20.70
17.52
12.55
5.91
-1.80
-9.62
-16.55
-21.69
-24.38
-24.09
-20.52
-13.66
-4.10
6.87
17.30
25.12
28.77
27.83
23.10
16.30
9.28
3.34
-1.22
-4.80
-8.06
-11.35
-14.46
-16.88
-18.16
-18.31
-17.82
-17.47
-17.90
-19.38
-21.70
-24.32
-26.64
-28.21
-28.88
-28.71
-27.97
-26.93
-25.81
-24.69
-23.56
-22.33
-20.98
-19.48
-17.78
-15.78
-13.18
-9.68
-5.34
-0.89
2.24
2.63
-0.31
-5.52
-10.47
-12.06
-8.08
1.71
15.44
30.04
42.63
51.57
56.67
58.65
58.33
56.09
51.92
45.89
38.44
30.34
22.41
15.13
8.58
2.46
-3.58
-9.72
-15.76
-21.26
-25.75
-28.92
-30.68
-31.17
-30.57
-29.02
-26.56
-23.18
-18.95
-14.09
-9.00
-4.19
-0.13
2.87
4.81
5.99
6.82
7.58
8.30
8.67
8.25
6.75
4.29
1.42
-1.15
-2.81
-3.26
-2.53
-0.77
1.89
5.44
9.77
14.55
19.11
22.64
24.46
24.37
22.72
20.34
18.17
16.85
16.54
16.95
17.50
17.67
17.16
16.04
14.61
13.32
12.49
12.25
12.45
12.72
12.57
11.55
9.42
6.18
2.14
-2.29
-6.71
-10.90
-14.85
-18.64
-22.35
-25.85
-28.86
-31.00
-32.01
-31.88
-30.88
-29.46
-28.09
-27.17
-26.91
-27.36
-28.52
-30.22
-32.26
-34.33
-36.00
-36.91
-36.81
-35.80
-34.29
-32.89
-32.17
-32.44
-33.66
-35.48
-37.41
-38.95
-39.76
-39.52
-37.92
-34.50
-28.77
-20.38
-9.36
3.74
17.95
32.05
44.81
55.22
62.56
66.41
66.68
63.63
57.88
50.44
42.48
35.13
29.16
24.80
21.77
19.36
16.84
13.68
9.87
5.87
2.27
-0.65
-3.20
-6.21
-10.54
-16.36
-22.77
-28.04
-30.43
-29.04
-24.37
-17.98
-12.08
-9.05
-11.14
-20.25
-37.31
-61.48
-89.69
-116.95
-137.80
-148.57
-148.84
-141.27
-129.82
-117.47
-104.72
-89.92
-70.84
-46.23
-17.41
12.33
39.33
61.31
77.88
90.02
99.09
106.18
112.80
119.81
127.63
136.56
146.92
158.96
172.73
188.21
205.65
226.81
252.37
280.92
308.75
331.12
343.79
344.54
333.76
314.13
290.69
266.53
241.53
213.03
178.58
137.96
93.70
49.98
1.41
-50.32
-98.96
-138.00
-165.68
-184.11
-196.90
-206.16
-212.15
-215.53
-216.94
-219.72
-226.70
-241.48
-265.93
-299.47
-338.99
-379.34
-414.04
-435.08
-436.64
-416.81
-378.29
-326.65
-268.53
-209.69
-154.10
-103.78
-58.67
-18.66
15.95
44.79
68.60
89.69
111.49
137.35
169.43
208.16
251.31
294.42
331.95
359.40
374.81
379.25
375.88
368.03
357.55
343.70
324.02
296.11
259.43
215.90
168.73
120.63
72.67
24.47
-24.43
-73.08
-118.76
-157.85
-187.39
-206.42
-216.18
-219.17
-218.10
-215.21
-212.22
-210.63
-211.71
-216.16
-223.48
-231.65
-237.43
-237.40
-229.29
-213.05
-190.98
-166.86
-144.37
-125.62
-110.42
-96.86
-82.83
-67.41
-51.63
-37.76
-27.88
-22.44
-19.84
-17.25
-12.21
-3.93
6.49
16.99
25.88
32.81
38.88
45.74
54.55
65.13
76.17
86.26
94.86
102.85
112.05
124.15
139.58
157.18
174.56
189.05
198.55
201.94
198.90
189.63
174.56
154.31
129.83
102.44
73.70
45.14
17.77
-8.22
-33.43
-59.12
-86.67
-116.90
-149.25
-181.40
-209.22
-227.74
-232.27
-219.62
-188.87
-141.36
-80.28
-10.13
63.77
135.61
199.62
250.68
285.22
301.64
300.58
284.27
255.84
218.89
177.46
136.25
100.38
74.41
60.81
59.10
66.08
77.50
90.04
102.46
115.17
128.63
141.53
150.15
149.70
136.61
110.66
75.74
38.30
4.95
-20.11
-36.21
-45.82
-53.02
-61.71
-74.42
-91.93
-113.74
-138.66
-165.28
-192.23
-218.08
-241.15
-259.47
-270.89
-273.51
-266.26
-249.50
-225.26
-197.21
-170.00
-148.34
-135.64
-132.85
-137.79
-145.39
-148.84
-141.51
-118.93
-80.19
-28.30
30.77
89.57
141.03
179.98
204.12
214.35
214.26
209.12
204.27
203.44
207.86
216.19
225.44
232.24
233.93
228.89
216.51
196.87
170.63
138.94
103.32
65.28
25.82
-15.11
-58.60
-106.18
-158.74
-215.68
-274.38
-330.73
-380.15
-418.97
-445.22
-458.90
-461.42
-454.88
-441.38
-422.56
-399.61
-373.21
-343.67
-311.00
-275.15
-236.26
-194.90
-152.05
-108.84
-66.24
-25.01
14.17
50.46
82.77
110.13
132.08
149.10
162.57
174.14
185.15
196.03
206.41
215.41
222.15
225.97
226.47
223.33
216.21
205.04
190.15
172.61
154.15
136.85
122.51
112.15
105.63
101.73
98.58
94.16
86.95
76.18
61.89
44.78
25.89
6.37
-12.71
-30.48
-46.32
-59.83
-70.81
-79.23
-85.18
-88.89
-90.76
-91.36
-91.39
-91.49
-92.13
-93.36
-94.79
-95.55
-94.55
-90.66
-83.09
-71.64
-56.84
-40.00
-22.89
-7.38
5.11
13.98
19.58
22.89
25.06
26.80
28.07
28.16
26.28
22.07
15.99
9.24
3.28
-0.75
-2.34
-1.68
0.69
4.08
7.88
11.52
14.44
16.18
16.54
15.67
14.13
12.73
12.30
13.41
16.21
20.32
24.98
29.15
31.94
32.88
32.09
30.23
28.06
26.11
24.32
22.25
19.30
15.17
10.06
4.55
-0.76
-5.49
-9.62
-13.35
-16.82
-19.98
-22.57
-24.30
-24.99
-24.74
-23.84
-22.73
-21.85
-21.51
-21.84
-22.71
-23.64
-23.92
-22.68
-19.14
-12.79
-3.62
7.82
20.47
32.98
43.98
52.41
57.72
59.94
59.60
57.44
54.18
50.27
45.89
41.01
35.59
29.60
23.02
15.69
7.29
-2.55
-14.04
-27.03
-40.96
-54.90
-67.73
-78.41
-86.03
-89.99
-90.06
-86.45
-79.93
-71.65
-63.00
-55.20
-49.05
-44.76
-42.02
-40.14
-38.16
-34.96
-29.30
-20.08
-6.58
11.20
32.50
55.98
80.08
103.47
125.10
144.10
159.37
169.50
172.99
168.75
156.61
137.63
113.86
87.82
61.79
37.39
15.48
-3.66
-19.91
-33.11
-43.07
-49.70
-53.17
-53.85
-52.09
-48.00
-41.38
-32.10
-20.54
-7.93
3.86
13.05
18.88
22.04
24.28
27.37
31.84
36.56
39.14
37.17
29.50
16.76
1.09
-14.69
-28.01
-37.13
-41.29
-40.66
-36.14
-29.15
-21.33
-14.17
-8.74
-5.58
-4.91
-6.84
-11.44
-18.58
-27.52
-36.72
-44.06
-47.48
-45.71
-38.82
-28.12
-15.77
-3.93
5.73
12.36
15.85
16.53
15.00
11.97
8.19
4.42
1.34
-0.67
-1.64
-2.02
-2.64
-4.44
-8.30
-14.86
-24.31
-36.44
-50.64
-66.23
-82.63
-99.48
-116.32
-132.06
-144.66
-151.08
-148.10
-133.33
-106.25
-68.73
-24.81
20.24
61.02
93.14
113.95
122.91
121.53
112.91
100.92
89.33
81.03
77.65
79.50
85.86
95.35
106.21
116.69
125.29
131.11
133.93
134.18
132.59
129.82
126.19
121.78
116.65
111.15
106.02
102.10
99.94
99.27
98.86
96.76
90.90
79.80
63.10
41.73
17.52
-7.17
-29.94
-48.65
-61.54
-67.50
-66.30
-58.84
-47.10
-33.81
-21.77
-13.05
-8.49
-7.52
-8.47
-9.20
-7.77
-2.90
5.65
17.18
30.21
42.93
53.56
60.73
63.78
62.82
58.85
53.58
49.10
47.45
49.76
55.90
64.35
72.81
79.02
81.64
80.47
76.15
69.53
61.01
50.55
38.06
23.94
9.27
-4.48
-16.07
-25.18
-32.39
-38.95
-46.01
-54.05
-62.73
-71.08
-77.93
-82.30
-83.66
-81.95
-77.56
-71.18
-63.85
-56.85
-51.63
-49.59
-51.79
-58.49
-68.72
-80.12
-89.26
-92.60
-87.79
-74.82
-56.42
-37.33
-22.79
-16.69
-20.31
-32.09
-48.37
-64.82
-77.68
-84.55
-84.52
-77.88
-65.69
-49.42
-30.82
-11.85
5.37
18.74
26.55
27.91
23.16
13.83
2.30
-8.95
-17.95
-23.80
-26.62
-27.26
-26.78
-26.13
-26.02
-27.00
-29.63
-34.39
-41.54
-50.77
-60.96
-70.25
-76.29
-76.94
-70.80
-57.81
-39.29
-17.59
4.72
25.70
44.64
62.15
79.56
98.09
118.07
138.57
157.64
172.97
182.84
186.84
186.20
183.48
181.94
184.24
191.62
203.19
215.94
225.49
227.30
218.17
197.55
168.12
135.11
104.73
81.85
67.88
60.10
52.49
38.35
13.09
-23.78
-68.52
-114.67
-155.50
-186.16
-204.56
-211.46
-209.47
-202.07
-192.77
-184.61
-179.94
-180.03
-185.22
-194.35
-205.16
-214.95
-221.24
-222.68
-219.24
-212.06
-202.71
-192.50
-181.59
-168.97
-152.42
-129.13
-96.79
-54.90
-6.08
43.79
86.63
114.72
123.43
112.92
87.98
55.86
23.57
-4.20
-25.55
-40.38
-49.07
-51.71
-48.36
-39.59
-27.51
-15.19
-5.68
-0.82
-0.41
-2.59
-4.88
-5.42
-3.66
-0.32
3.24
5.84
6.82
6.22
4.60
2.94
2.61
5.05
11.20
21.01
33.19
45.69
56.65
65.16
71.49
76.49
80.69
83.80
84.82
82.71
77.03
68.14
56.81
43.86
30.15
16.90
6.01
-0.24
-0.20
5.94
15.75
25.26
30.90
31.26
27.75
23.62
21.86
23.53
27.41
31.21
33.36
34.07
35.06
38.12
43.85
51.34
58.89
65.24
70.19
74.52
79.04
83.87
88.36
91.85
94.23
96.37
99.59
104.88
112.24
120.51
127.84
132.49
133.40
130.37
123.92
114.88
104.23
93.02
82.29
72.89
64.87
57.07
47.17
32.61
12.04
-13.59
-40.98
-65.90
-85.10
-98.04
-107.02
-115.86
-127.78
-143.88
-162.86
-182.10
-199.17
-212.76
-222.70
-229.16
-231.90
-230.07
-222.65
-209.18
-190.30
-167.89
-144.41
-122.14
-102.38
-85.15
-69.44
-54.06
-38.43
-23.01
-9.11
1.85
9.08
12.84
14.11
14.02
13.23
11.72
9.14
5.29
0.55
-4.21
-7.98
-10.09
-10.51
-9.83
-8.99
-8.90
-10.16
-12.89
-16.73
-20.92
-24.53
-26.70
-26.83
-24.70
-20.60
-15.21
-9.39
-3.99
0.43
3.76
6.16
7.88
8.99
9.23
8.18
5.53
1.45
-3.30
-7.53
-10.06
-10.21
-8.11
-4.66
-1.21
0.99
1.26
-0.24
-2.57
-4.31
-4.05
-0.84
5.57
14.56
24.93
35.13
43.65
49.24
51.08
48.82
42.62
33.19
21.66
9.42
-2.16
-12.12
-20.10
-26.22
-30.82
-34.01
-35.47
-34.66
-31.22
-25.40
-18.14
-10.76
-4.34
0.60
4.31
7.35
10.25
13.18
15.91
18.04
19.23
19.35
18.40
16.49
13.72
10.28
6.49
2.74
-0.65
-3.58
-6.16
-8.66
-11.33
-14.37
-17.86
-21.61
-24.99
-26.94
-26.10
-21.39
-12.74
-1.58
9.32
16.92
19.22
16.32
10.49
5.02
2.68
4.39
9.10
14.59
18.79
20.75
20.72
19.65
18.32
16.93
15.17
12.62
9.12
4.97
0.83
-2.66
-5.11
-6.43
-6.83
-6.73
-6.55
-6.54
-6.76
-6.99
-6.99
-6.71
-6.44
-6.81
-8.48
-11.79
-16.46
-21.69
-26.40
-29.79
-31.60
-32.26
-32.55
-33.19
-34.46
-35.97
-36.88
-36.18
-33.27
-28.14
-21.59
-15.05
-10.26
-8.82
-11.73
-18.96
-29.45
-41.39
-52.94
-62.78
-70.45
-76.19
-80.51
-83.77
-86.14
-87.86
-89.58
-92.30
-96.78
-102.57
-107.43
-107.26
-96.97
-72.13
-30.61
26.13
93.10
163.09
228.79
284.62
327.71
357.79
376.11
384.53
384.61
377.44
363.31
341.60
310.52
267.40
210.29
140.16
62.88
-10.82
-68.50
-101.00
-106.69
-92.41
-70.50
-53.23
-47.60
-53.05
-63.25
-70.74
-71.61
-67.62
-64.88
-70.41
-88.69
-120.19
-162.04
-209.67
-258.14
-302.48
-337.63
-358.98
-363.79
-352.69
-330.12
-302.72
-276.69
-255.52
-239.38
-227.04
-218.45
-215.74
-221.65
-236.38
-255.30
-269.24
-268.08
-245.32
-200.96
-140.81
-72.90
-3.38
65.55
134.70
205.14
275.60
341.72
397.56
438.04
460.94
467.38
460.94
446.44
428.78
411.92
398.12
387.32
377.04
363.41
342.75
313.20
275.51
232.61
188.57
147.47
112.85
87.36
72.75
69.28
75.49
88.37
104.38
121.03
138.01
157.21
181.28
211.56
246.52
281.65
311.02
329.57
335.10
328.73
313.74
293.41
269.22
240.16
204.03
159.54
107.73
52.13
-2.86
-54.27
-102.00
-148.74
-198.57
-255.00
-319.47
-390.61
-463.87
-531.97
-586.06
-617.74
-621.84
-598.47
-553.52
-496.54
-437.08
-381.07
-329.48
-279.42
-227.33
-172.08
-116.03
-64.05
-21.03
10.23
29.92
40.33
44.36
44.17
40.60
33.52
22.61
7.92
-10.24
-31.70
-57.04
-87.44
-123.77
-165.69
-210.84
-255.19
-294.46
-325.66
-347.96
-362.33
-370.61
-374.12
-373.38
-368.34
-359.03
-345.78
-328.93
-308.28
-283.01
-252.21
-215.78
-175.21
-133.19
-92.85
-56.52
-24.92
2.96
29.36
57.01
88.55
125.85
169.37
217.57
266.77
311.58
346.31
366.51
370.38
359.30
337.11
308.68
278.42
249.21
222.28
197.83
175.76
156.23
139.64
126.38
116.43
109.28
104.02
99.53
94.83
89.33
82.93
75.90
68.67
61.63
54.75
47.66
39.65
30.24
19.51
8.47
-1.14
-7.48
-9.46
-7.58
-4.10
-2.42
-5.85
-16.36
-33.63
-54.93
-75.74
-90.79
-95.19
-85.37
-59.79
-19.29
32.85
91.52
150.67
204.54
248.75
280.89
300.44
308.28
306.09
295.99
280.31
261.53
241.80
222.50
203.65
183.90
161.12
133.38
99.98
61.84
21.31
-18.73
-55.72
-88.15
-115.67
-138.76
-158.25
-174.89
-189.09
-200.93
-210.16
-216.28
-218.62
-216.42
-209.10
-196.60
-179.50
-159.07
-136.99
-114.90
-94.10
-75.26
-58.52
-43.62
-30.10
-17.39
-4.86
8.22
22.36
37.73
53.95
70.13
85.04
97.29
105.47
108.36
105.35
97.19
86.63
78.24
77.05
86.29
105.37
129.18
149.56
158.32
150.22
124.46
84.11
34.41
-18.85
-70.02
-113.63
-144.53
-158.95
-156.01
-138.74
-113.59
-88.21
-68.72
-57.83
-54.67
-56.27
-59.58
-62.76
-65.50
-68.23
-71.25
-74.30
-76.74
-78.13
-78.59
-78.83
-79.67
-81.27
-82.75
-82.33
-78.14
-69.29
-56.49
-42.08
-29.20
-20.60
-17.66
-20.20
-26.69
-35.08
-43.30
-49.67
-52.95
-52.33
-47.55
-38.94
-27.47
-14.56
-1.76
9.64
18.93
26.06
31.36
35.24
37.89
39.17
38.90
37.20
34.76
32.82
32.71
35.01
38.92
42.05
40.95
32.35
14.58
-11.38
-41.79
-71.05
-93.53
-105.49
-106.41
-99.19
-89.27
-82.94
-85.42
-99.28
-123.48
-153.43
-182.05
-201.85
-207.47
-197.62
-175.56
-147.58
-120.27
-97.64
-79.79
-63.72
-45.69
-23.71
1.27
26.12
47.42
63.29
73.95
81.00
85.91
88.87
88.82
84.29
74.89
62.32
50.25
43.37
45.84
59.93
85.42
119.79
159.07
198.78
234.74
263.39
281.98
288.70
282.89
265.52
239.21
207.85
175.73
146.24
121.06
99.82
80.71
61.38
40.15
16.69
-7.83
-31.01
-50.02
-62.33
-66.42
-62.25
-51.22
-35.51
-17.29
2.02
22.07
42.94
64.37
85.15
103.11
115.72
121.01
118.03
107.11
90.13
70.66
54.03
46.31
51.99
71.24
98.48
123.88
137.26
132.88
112.03
81.88
51.27
25.99
6.32
-11.75
-32.92
-59.09
-88.20
-115.63
-137.04
-150.54
-156.94
-158.45
-156.96
-153.03
-145.99
-134.99
-120.06
-102.61
-85.34
-71.34
-62.94
-60.87
-64.00
-69.79
-75.34
-78.40
-77.90
-73.86
-66.86
-57.45
-45.92
-32.46
-17.42
-1.62
13.66
27.02
37.27
43.84
46.88
47.12
45.50
42.83
39.43
35.10
29.53
22.78
15.71
9.94
7.19
8.48
13.51
20.82
28.30
34.22
37.70
38.83
38.23
36.46
33.81
30.36
26.31
22.13
18.58
16.31
15.58
16.13
17.33
18.40
18.67
17.78
15.67
12.57
8.91
5.16
1.68
-1.41
-4.33
-7.41
-10.85
-14.49
-17.70
-19.68
-19.86
-18.19
-15.20
-11.72
-8.50
-5.86
-3.67
-1.62
0.47
2.47
4.01
4.66
4.27
3.01
1.32
-0.28
-1.31
-1.46
-0.63
0.98
2.90
4.53
5.33
5.15
4.37
3.86
4.56
6.93
10.46
13.65
14.50
11.32
3.62
-7.56
-19.84
-30.37
-36.69
-37.48
-32.66
-23.05
-9.85
5.76
22.65
39.48
54.58
66.11
72.42
72.62
66.89
56.31
42.56
27.42
12.58
-0.45
-10.40
-16.52
-18.93
-18.77
-17.93
-18.30
-20.91
-25.28
-29.47
-30.83
-27.05
-17.16
-2.12
15.44
31.96
43.95
49.02
46.34
36.57
21.38
2.75
-17.48
-37.72
-56.36
-71.73
-82.24
-86.98
-86.17
-81.27
-74.37
-67.20
-60.30
-52.79
-42.81
-28.58
-9.39
13.99
39.39
63.88
84.48
98.68
104.70
101.59
89.24
68.51
41.14
9.42
-24.22
-57.73
-89.69
-119.03
-144.67
-165.34
-179.65
-186.62
-185.95
-178.09
-163.61
-142.62
-114.53
-78.74
-35.77
11.77
59.26
101.28
133.48
154.00
163.75
165.42
161.99
155.75
148.25
140.99
136.02
135.70
141.55
153.02
166.96
178.56
183.33
179.12
166.91
149.98
131.99
114.91
98.17
79.28
55.53
25.75
-8.71
-44.20
-75.98
-99.85
-113.40
-116.62
-111.67
-101.99
-91.37
-82.89
-78.41
-78.26
-81.42
-85.98
-89.79
-91.12
-89.19
-84.09
-76.71
-68.21
-59.65
-51.77
-45.09
-39.99
-36.89
-36.17
-37.84
-41.53
-46.47
-51.89
-57.27
-62.49
-67.66
-72.70
-77.07
-79.72
-79.36
-75.01
-66.62
-55.14
-42.30
-29.89
-19.11
-10.15
-2.22
6.06
16.19
29.15
45.19
63.79
83.89
104.36
124.41
143.86
163.06
182.54
202.44
221.95
239.12
251.04
254.52
246.96
227.05
195.24
153.58
105.20
53.56
1.73
-47.95
-93.67
-133.77
-166.45
-189.83
-202.51
-204.26
-196.43
-181.80
-163.87
-145.81
-129.63
-115.89
-103.95
-92.55
-80.41
-66.70
-51.20
-34.53
-18.09
-3.95
5.69
9.32
6.90
0.29
-7.27
-12.25
-12.22
-6.69
2.82
13.59
22.87
28.72
30.29
27.58
21.05
11.29
-0.80
-13.82
-25.85
-34.74
-38.85
-37.62
-31.97
-23.93
-15.84
-9.46
-5.26
-2.51
0.11
3.67
8.37
13.41
17.56
19.84
20.02
18.75
17.12
16.14
16.42
18.17
21.53
26.83
34.57
44.95
57.36
70.06
80.50
86.22
85.72
79.13
68.10
55.02
42.07
30.60
20.90
12.55
4.94
-2.51
-10.14
-18.16
-26.57
-35.00
-42.52
-47.76
-49.27
-46.14
-38.65
-28.42
-18.06
-10.26
-6.85
-8.33
-13.96
-22.37
-32.32
-43.07
-54.19
-65.16
-74.98
-82.23
-85.55
-84.12
-78.05
-68.19
-55.79
-42.10
-28.28
-15.47
-4.82
2.59
6.17
6.17
3.63
0.03
-3.26
-5.49
-6.63
-6.97
-6.77
-5.96
-4.08
-0.56
4.94
12.41
21.40
31.12
40.62
48.93
55.24
58.92
59.62
57.20
51.68
43.24
32.24
19.32
5.44
-8.12
-19.93
-28.77
-33.80
-34.89
-32.57
-27.93
-22.39
-17.32
-13.78
-12.41
-13.40
-16.61
-21.69
-28.21
-35.66
-43.34
-50.36
-55.58
-57.73
-55.66
-48.66
-36.67
-20.44
-1.42
18.47
37.18
52.85
64.15
70.44
71.82
69.03
63.30
56.03
48.52
41.72
36.07
31.53
27.70
23.99
19.83
14.91
9.21
3.14
-2.56
-7.00
-9.37
-9.26
-6.85
-2.96
1.29
4.72
6.52
6.40
4.62
1.75
-1.54
-4.65
-7.11
-8.58
-8.83
-7.73
-5.28
-1.72
2.52
6.81
10.48
12.98
14.01
13.59
11.99
9.65
7.00
4.42
2.17
0.43
-0.68
-1.08
-0.83
-0.09
0.84
1.60
1.88
1.50
0.46
-1.04
-2.68
-4.07
-4.87
-4.89
-4.12
-2.72
-0.98
0.84
2.60
4.25
5.82
7.22
8.32
8.87
8.72
7.90
6.75
5.75
5.33
5.66
6.55
7.52
8.02
7.64
6.25
4.03
1.34
-1.50
-4.26
-6.91
-9.48
-11.98
-14.30
-16.31
-17.86
-18.88
-19.41
-19.53
-19.22
-18.34
-16.73
-14.27
-11.10
-7.60
-4.24
-1.41
0.75
2.36
3.69
5.00
6.40
7.87
9.27
10.45
11.30
11.79
11.91
11.76
11.48
11.26
11.26
11.55
12.05
12.59
12.98
13.06
12.73
11.90
10.51
8.57
6.16
3.55
1.11
-0.80
-1.94
-2.33
-2.17
-1.74
-1.20
-0.51
0.54
2.13
4.32
6.93
9.61
12.03
14.00
15.59
17.06
18.66
20.56
22.67
24.71
26.34
27.32
27.58
27.25
26.61
25.91
25.38
25.13
25.24
25.76
26.74
28.18
29.89
31.55
32.73
33.06
32.38
30.81
28.70
26.48
24.46
22.72
21.10
19.30
16.90
13.61
9.22
3.75
-2.57
-9.27
-15.87
-22.01
-27.75
-33.55
-40.08
-47.82
-56.71
-66.01
-74.50
-81.03
-84.96
-86.48
-86.46
-86.16
-86.87
-89.57
-94.78
-102.40
-111.64
-121.02
-128.48
-131.79
-129.17
-119.85
-104.42
-84.63
-62.90
-41.61
-22.43
-6.10
7.48
18.97
29.19
38.87
48.47
58.20
67.97
77.33
85.53
91.62
94.70
94.22
90.20
83.07
73.57
62.43
50.29
37.76
25.51
14.39
5.30
-1.00
-4.18
-4.42
-2.32
1.22
5.25
8.87
11.26
11.73
9.84
5.53
-0.79
-8.32
-16.06
-23.12
-28.85
-33.00
-35.56
-36.67
-36.49
-35.17
-32.81
-29.57
-25.49
-20.49
-14.28
-6.46
3.24
14.78
27.52
40.33
51.78
60.50
65.48
66.27
63.03
56.36
47.21
36.72
26.07
16.33
8.41
2.94
0.29
0.50
3.17
7.52
12.38
16.56
19.08
19.52
18.04
15.14
11.41
7.23
2.82
-1.64
-5.74
-8.90
-10.51
-10.35
-8.69
-6.34
-4.34
-3.50
-4.15
-5.94
-8.02
-9.42
-9.46
-8.06
-5.73
-3.42
-2.04
-2.08
-3.35
-5.13
-6.53
-6.99
-6.55
-5.80
-5.51
-5.98
-6.77
-6.56
-3.64
3.58
16.02
33.73
56.02
81.49
107.91
132.07
149.99
157.76
152.79
135.13
107.64
75.02
41.80
10.50
-18.96
-48.25
-78.44
-108.21
-133.55
-149.34
-151.87
-140.85
-119.55
-93.28
-67.04
-43.80
-24.34
-8.37
4.08
11.88
13.49
8.15
-2.99
-16.90
-29.66
-37.95
-40.26
-37.07
-30.35
-22.40
-15.08
-9.29
-5.02
-1.72
1.24
4.15
6.90
9.02
10.07
9.94
8.97
7.79
6.98
6.82
7.14
7.53
7.65
7.47
7.24
7.37
8.13
9.46
11.07
12.53
13.54
14.00
14.08
13.99
13.93
13.96
13.99
13.91
13.63
13.22
12.75
12.26
11.68
10.73
9.13
6.73
3.60
-0.00
-3.79
-7.59
-11.51
-15.74
-20.37
-25.15
-29.38
-32.12
-32.51
-30.18
-25.51
-19.67
-14.34
-11.34
-12.22
-17.93
-28.71
-44.01
-62.50
-82.18
-100.42
-114.26
-121.08
-119.32
-109.20
-92.75
-73.25
-54.11
-37.76
-24.94
-14.86
-6.03
2.81
11.99
20.88
28.46
33.90
37.02
38.19
38.11
37.38
36.35
35.13
33.75
32.29
31.01
30.23
30.28
31.40
33.60
36.74
40.46
44.35
48.01
51.14
53.66
55.56
56.84
57.30
56.58
54.22
49.83
43.30
34.88
25.26
15.44
6.61
-0.19
-4.24
-5.37
-3.97
-0.94
2.53
5.32
6.82
7.35
8.42
12.50
22.24
39.25
62.98
90.18
115.58
133.33
138.96
130.74
110.05
80.84
48.24
17.25
-8.18
-25.65
-34.46
-35.46
-30.72
-23.16
-15.80
-11.21
-10.93
-15.22
-23.26
-33.42
-43.83
-52.79
-59.12
-62.31
-62.50
-60.24
-56.18
-50.88
-44.75
-38.20
-31.75
-26.12
-22.11
-20.26
-20.63
-22.66
-25.41
-27.79
-28.96
-28.48
-26.36
-22.96
-18.89
-15.01
-12.28
-11.69
-13.82
-18.69
-25.61
-33.27
-40.30
-45.62
-48.78
-49.77
-48.80
-45.86
-40.71
-33.08
-23.03
-11.18
1.25
12.76
21.86
27.39
28.53
24.89
16.58
4.42
-10.07
-24.86
-37.87
-47.53
-53.10
-54.60
-52.40
-46.88
-38.28
-26.98
-13.80
-0.11
12.42
22.28
28.60
31.31
30.92
28.20
23.87
18.51
12.69
7.07
2.38
-0.70
-1.71
-0.65
2.08
5.76
9.56
12.73
14.77
15.52
15.15
14.15
13.16
12.90
13.96
16.65
20.92
26.43
32.64
38.96
44.86
49.93
53.87
56.48
57.61
57.29
55.69
53.20
50.36
47.71
45.61
44.10
42.84
41.20
38.49
34.16
27.99
20.16
11.18
1.68
-7.62
-16.08
-23.20
-28.60
-32.11
-33.80
-33.99
-33.21
-32.00
-30.72
-29.39
-27.69
-25.16
-21.50
-16.77
-11.49
-6.36
-2.04
1.15
3.34
4.97
6.66
9.02
12.50
17.30
23.13
29.20
34.24
36.87
36.01
31.28
23.25
13.27
3.11
-5.49
-11.28
-13.71
-12.92
-9.67
-5.03
-0.20
3.72
5.90
5.89
3.74
0.03
-4.26
-7.94
-10.04
-10.16
-8.69
-6.78
-5.84
-7.04
-10.79
-16.65
-23.43
-29.61
-33.79
-35.14
-33.46
-29.28
-23.54
-17.31
-11.52
-6.72
-3.10
-0.62
0.83
1.30
0.78
-0.73
-3.12
-6.16
-9.51
-12.80
-15.74
-18.08
-19.64
-20.30
-19.98
-18.71
-16.63
-14.01
-11.14
-8.29
-5.64
-3.29
-1.26
0.39
1.66
2.53
3.04
3.31
3.45
3.63
3.90
4.25
4.57
4.77
4.79
4.66
4.49
4.39
4.39
4.43
4.33
3.91
3.10
2.02
0.94
0.20
-0.01
0.31
0.89
1.32
1.18
0.17
-1.87
-4.96
-8.97
-13.66
-18.66
-23.42
-27.33
-29.81
-30.49
-29.31
-26.49
-22.42
-17.53
-12.11
-6.32
-0.31
5.71
11.36
16.12
19.43
20.86
20.29
17.99
14.58
10.91
7.75
5.62
4.62
4.44
4.56
4.56
4.30
3.95
3.89
4.46
5.83
7.93
10.52
13.37
16.27
18.99
21.23
22.56
22.57
20.93
17.65
13.17
8.20
3.60
0.05
-2.10
-2.87
-2.59
-1.67
-0.42
0.94
2.31
3.54
4.39
4.50
3.54
1.41
-1.68
-5.24
-8.56
-10.98
-12.05
-11.64
-9.92
-7.26
-4.10
-0.83
2.23
4.87
6.84
7.87
7.68
6.07
3.11
-0.80
-5.02
-8.90
-11.96
-14.13
-15.60
-16.74
-17.88
-19.13
-20.44
-21.64
-22.56
-23.04
-23.04
-22.54
-21.65
-20.54
-19.48
-18.73
-18.44
-18.51
-18.57
-18.03
-16.27
-12.84
-7.66
-0.99
6.58
14.34
21.63
27.90
32.68
35.55
36.19
34.43
30.46
24.88
18.71
13.09
9.07
7.35
8.12
11.13
15.82
21.54
27.66
33.72
39.38
44.39
48.54
51.57
53.32
53.78
53.24
52.22
51.30
50.85
50.81
50.60
49.36
46.28
41.03
33.93
25.90
18.05
11.21
5.54
0.46
-5.11
-12.25
-21.58
-32.99
-45.65
-58.23
-69.20
-77.12
-80.85
-79.81
-74.18
-65.10
-54.56
-44.81
-37.45
-32.68
-29.25
-25.18
-19.19
-11.82
-5.44
-3.22
-7.30
-17.52
-31.27
-44.68
-54.43
-59.02
-59.02
-56.09
-51.82
-46.81
-40.77
-33.26
-24.45
-15.35
-7.54
-2.41
-0.50
-1.31
-3.60
-5.92
-7.18
-6.95
-5.43
-3.09
-0.35
2.71
6.33
10.91
16.65
23.27
29.90
35.36
38.60
39.20
37.58
34.80
32.08
30.18
29.08
28.09
26.26
22.89
17.84
11.53
4.64
-2.15
-8.37
-13.68
-17.74
-20.18
-20.70
-19.30
-16.35
-12.63
-9.11
-6.59
-5.55
-6.06
-7.91
-10.86
-14.75
-19.44
-24.62
-29.69
-33.70
-35.65
-34.79
-30.90
-24.41
-16.19
-7.22
1.72
10.16
17.99
25.19
31.74
37.47
42.11
45.38
47.07
47.15
45.71
43.00
39.33
35.01
30.38
25.74
21.44
17.79
15.04
13.19
12.01
10.98
9.55
7.32
4.30
0.87
-2.39
-4.96
-6.61
-7.37
-7.40
-6.78
-5.45
-3.28
-0.24
3.47
7.46
11.28
14.53
16.96
18.37
18.63
17.63
15.42
12.27
8.62
4.99
1.76
-0.92
-3.15
-5.14
-7.03
-8.82
-10.41
-11.68
-12.60
-13.30
-14.00
-14.96
-16.30
-18.00
-19.76
-21.07
-21.27
-19.69
-15.91
-9.85
-1.92
7.04
15.92
23.54
29.04
32.19
33.49
33.99
34.87
36.77
39.40
41.45
41.08
36.68
27.62
14.59
-0.57
-15.48
-27.92
-36.39
-40.26
-39.59
-34.87
-26.85
-16.52
-5.14
5.69
14.24
19.02
19.23
15.08
7.80
-0.79
-8.80
-14.85
-18.38
-19.60
-19.17
-17.79
-15.93
-13.77
-11.35
-8.76
-6.26
-4.33
-3.44
-3.90
-5.65
-8.25
-10.99
-13.18
-14.34
-14.38
-13.56
-12.30
-11.02
-9.91
-8.93
-7.94
-6.90
-5.97
-5.46
-5.66
-6.66
-8.20
-9.81
-10.92
-11.15
-10.42
-8.98
-7.29
-5.84
-4.97
-4.77
-5.10
-5.58
-5.83
-5.57
-4.75
-3.52
-2.18
-0.99
-0.05
0.62
1.09
1.39
1.54
1.55
1.58
1.93
2.89
4.56
6.63
8.44
9.18
8.24
5.53
1.52
-2.94
-7.00
-10.11
-12.17
-13.29
-13.58
-13.00
-11.44
-8.91
-5.78
-2.80
-0.86
-0.65
-2.35
-5.58
-9.58
-13.50
-16.69
-18.83
-19.86
-19.87
-18.98
-17.29
-14.92
-12.04
-9.01
-6.24
-4.21
-3.26
-3.54
-4.91
-6.96
-9.17
-11.03
-12.20
-12.57
-12.33
-11.83
-11.48
-11.49
-11.83
-12.15
-11.95
-10.81
-8.59
-5.64
-2.70
-0.66
-0.19
-1.39
-3.61
-5.45
-5.06
-0.78
8.34
21.93
38.28
54.68
68.21
76.64
79.05
75.96
68.96
60.01
50.78
42.31
35.04
29.07
24.44
21.24
19.60
19.49
20.63
22.39
23.90
24.25
22.77
19.35
14.54
9.44
5.36
3.38
3.97
6.86
11.18
15.71
19.20
20.67
19.69
16.65
12.80
10.07
10.29
14.56
22.52
32.41
41.67
47.87
49.66
47.03
41.08
33.26
24.82
16.49
8.63
1.42
-4.94
-10.25
-14.44
-17.54
-19.67
-20.89
-21.28
-20.95
-20.02
-18.64
-16.73
-13.96
-9.85
-4.13
2.84
9.85
15.09
16.82
14.12
7.43
-1.55
-10.50
-17.42
-21.40
-22.80
-22.86
-22.77
-22.98
-22.83
-21.07
-16.66
-9.69
-1.67
4.80
6.92
2.73
-8.27
-24.82
-44.38
-63.67
-79.66
-90.43
-96.06
-98.84
-102.73
-111.91
-128.94
-153.34
-181.34
-206.93
-223.92
-228.00
-217.88
-195.24
-163.59
-126.84
-88.22
-49.94
-13.45
20.17
50.01
75.41
96.12
112.35
124.48
132.62
136.33
134.78
127.40
114.71
98.84
83.21
71.52
66.33
68.04
74.82
83.47
90.87
95.23
96.61
96.49
96.74
98.41
100.98
102.39
99.98
91.86
78.15
61.52
46.56
38.32
40.41
53.48
74.70
98.40
117.79
127.06
123.15
106.72
81.79
54.39
30.50
14.24
6.73
6.10
8.54
9.68
6.12
-3.86
-20.13
-41.05
-64.15
-86.82
-106.81
-122.54
-133.26
-138.95
-140.23
-138.34
-134.93
-131.88
-130.85
-132.72
-137.16
-142.73
-147.47
-149.88
-149.76
-148.35
-147.84
-150.27
-156.49
-165.60
-175.10
-181.61
-181.89
-173.75
-156.66
-131.86
-101.99
-70.31
-39.75
-12.11
12.28
34.31
55.34
76.32
97.11
116.37
132.10
142.45
146.41
144.20
137.07
126.79
115.12
103.47
92.94
84.46
79.01
77.49
80.46
87.66
97.71
108.31
116.72
120.56
118.57
110.83
98.61
83.82
68.41
53.90
41.25
30.95
23.33
18.83
18.01
21.42
29.30
41.24
56.00
71.69
86.06
97.06
103.23
103.95
99.36
89.99
76.42
59.19
38.90
16.63
-5.85
-26.14
-41.84
-51.34
-54.52
-53.00
-49.66
-47.82
-50.39
-59.49
-76.35
-101.18
-132.81
-168.30
-203.01
-231.57
-249.60
-255.41
-250.67
-239.39
-225.80
-212.00
-196.99
-177.60
-150.81
-115.95
-75.62
-34.67
1.93
31.17
52.82
68.63
80.70
90.02
95.99
97.22
92.91
83.94
72.81
62.59
55.36
51.50
49.76
48.35
46.17
43.21
40.19
37.82
36.32
35.64
36.07
38.66
44.88
55.72
70.81
88.02
104.09
115.76
120.88
118.93
110.80
98.21
83.00
66.85
51.08
36.77
24.69
15.29
8.52
3.73
-0.33
-5.34
-12.77
-23.08
-35.21
-46.70
-54.50
-56.30
-51.60
-42.05
-30.84
-21.48
-16.58
-17.26
-23.13
-32.82
-44.62
-56.69
-67.17
-74.27
-76.68
-74.27
-68.62
-62.72
-59.65
-60.78
-64.28
-64.95
-55.93
-31.47
10.21
65.76
127.65
186.92
236.25
272.03
294.47
306.26
310.55
309.44
303.42
291.78
273.55
248.45
217.37
182.39
146.33
111.83
80.71
53.46
28.99
4.94
-21.30
-51.08
-83.22
-113.75
-137.02
-148.23
-145.90
-132.85
-115.36
-100.44
-92.84
-93.96
-102.51
-116.62
-135.32
-158.31
-184.65
-211.92
-237.01
-257.94
-275.30
-291.66
-308.91
-325.54
-336.29
-334.36
-315.20
-279.50
-232.89
-182.78
-134.48
-89.05
-44.44
1.23
46.91
88.25
119.98
139.19
147.06
148.31
148.57
151.62
158.25
167.13
176.72
186.62
197.61
210.24
223.65
235.32
242.04
241.19
231.57
213.24
186.60
152.05
110.00
61.48
8.60
-45.68
-98.07
-145.39
-184.56
-212.44
-226.18
-224.26
-207.59
-179.95
-146.84
-113.38
-82.28
-53.35
-24.80
4.64
33.79
59.18
76.79
84.57
84.03
79.54
75.93
76.00
79.49
83.91
87.01
88.40
89.40
91.52
94.34
94.81
88.68
73.32
50.14
24.85
4.79
-4.89
-3.91
3.15
9.73
10.80
5.18
-4.76
-15.16
-23.24
-28.50
-32.30
-36.54
-42.50
-50.30
-59.14
-67.45
-73.04
-73.45
-66.34
-50.69
-27.72
-0.76
25.68
47.45
61.91
68.08
66.10
56.67
40.88
20.71
-0.70
-19.35
-31.55
-35.35
-31.30
-22.14
-11.52
-2.66
2.53
3.54
0.70
-5.37
-14.10
-24.98
-37.35
-50.35
-63.07
-74.87
-85.46
-94.89
-102.99
-109.13
-112.17
-111.00
-105.24
-95.74
-84.33
-73.08
-63.28
-54.93
-47.06
-38.68
-29.86
-22.09
-17.60
-18.11
-23.75
-32.82
-42.65
-50.84
-56.23
-58.97
-59.98
-59.95
-58.80
-55.52
-48.75
-37.47
-21.55
-2.00
19.37
40.44
59.47
75.40
87.89
96.97
102.59
104.28
101.15
92.29
77.35
57.01
32.98
7.63
-16.70
-38.13
-55.52
-68.45
-77.13
-82.31
-85.09
-86.45
-86.75
-85.28
-80.40
-70.19
-53.54
-31.06
-5.22
20.38
42.26
58.11
67.22
70.11
67.81
61.38
51.94
40.84
29.80
20.58
14.40
11.52
11.25
12.48
14.32
16.41
18.70
21.07
22.89
23.19
21.17
16.74
10.69
4.42
-0.76
-4.13
-5.73
-5.99
-5.30
-3.75
-1.21
2.27
6.27
9.94
12.34
12.79
11.16
7.83
3.60
-0.72
-4.44
-7.09
-8.42
-8.38
-7.17
-5.25
-3.29
-2.08
-2.22
-4.02
-7.27
-11.29
-15.10
-17.81
-19.04
-19.04
-18.69
-19.04
-20.97
-24.93
-31.09
-39.42
-49.57
-60.33
-69.15
-72.14
-65.01
-44.92
-12.16
29.13
71.96
108.78
133.93
145.15
143.64
132.75
116.47
98.13
79.92
63.06
48.09
35.15
24.11
14.66
6.52
-0.51
-6.44
-11.12
-14.35
-15.98
-16.03
-14.63
-12.09
-8.86
-5.52
-2.65
-0.73
-0.02
-0.44
-1.61
-2.90
-3.75
-3.87
-3.51
-3.36
-4.22
-6.54
-10.06
-13.89
-16.88
-18.31
-18.21
-17.41
-17.01
-17.76
-19.63
-21.76
-22.98
-22.33
-19.61
-15.38
-10.57
-6.03
-2.23
0.74
2.87
4.04
4.00
2.61
0.16
-2.55
-4.54
-5.05
-4.02
-2.12
-0.46
-0.14
-1.76
-5.23
-9.88
-14.79
-19.11
-22.24
-23.94
-24.17
-23.11
-21.07
-18.53
-16.03
-14.10
-12.94
-12.33
-11.63
-10.08
-7.18
-3.01
1.78
6.29
9.69
11.62
12.25
12.06
11.61
11.27
11.14
11.12
11.03
10.73
10.16
9.33
8.27
6.96
5.35
3.36
0.92
-1.99
-5.32
-8.98
-12.82
-16.68
-20.30
-23.46
-25.98
-27.95
-29.74
-32.00
-35.40
-40.26
-46.37
-52.96
-59.01
-63.65
-66.40
-67.07
-65.35
-60.65
-52.29
-40.21
-25.30
-9.22
6.72
22.62
40.16
61.65
88.14
118.28
148.58
175.04
195.14
208.67
217.04
221.50
221.88
216.79
205.05
187.16
165.59
143.65
123.70
105.99
88.97
70.64
49.97
27.65
5.69
-13.61
-28.69
-39.31
-46.47
-51.98
-57.76
-65.12
-74.28
-84.32
-93.54
-100.19
-103.33
-103.16
-100.87
-97.86
-95.04
-92.42
-89.26
-84.80
-78.94
-72.59
-67.24
-64.35
-64.57
-67.35
-71.18
-74.16
-74.69
-71.91
-65.87
-57.18
-46.73
-35.36
-23.75
-12.34
-1.34
9.13
19.03
28.30
36.84
44.54
51.30
57.07
61.68
64.78
65.70
63.63
58.02
48.94
37.34
24.90
13.51
4.69
-0.87
-3.39
-3.59
-2.31
-0.12
2.78
6.39
10.61
15.09
19.17
22.15
23.77
24.46
25.39
28.07
33.57
41.81
51.25
59.37
63.59
62.43
56.09
46.20
35.02
24.44
15.44
8.30
3.13
0.40
0.80
4.58
10.74
16.92
20.01
17.37
7.86
-7.77
-27.38
-48.45
-68.94
-87.70
-104.25
-118.36
-129.83
-138.38
-143.86
-146.32
-145.77
-141.90
-133.96
-120.94
-102.14
-77.83
-49.60
-20.25
6.87
28.80
43.79
51.68
53.70
51.84
48.23
44.76
42.79
43.14
45.93
50.52
55.64
59.69
61.37
60.16
56.56
51.76
47.13
43.60
41.35
40.00
38.84
37.26
34.92
31.80
28.05
23.91
19.59
15.19
10.82
6.56
2.63
-0.75
-3.32
-4.97
-5.77
-6.00
-6.01
-6.06
-6.23
-6.41
-6.42
-6.12
-5.50
-4.73
-4.02
-3.61
-3.64
-4.17
-5.14
-6.38
-7.61
-8.53
-8.97
-8.89
-8.47
-7.99
-7.69
-7.65
-7.76
-7.81
-7.61
-7.05
-6.04
-4.48
-2.20
0.87
4.60
8.54
12.06
14.48
15.41
14.84
13.11
10.70
8.09
5.59
3.42
1.70
0.47
-0.27
-0.61
-0.73
-0.83
-1.05
-1.50
-2.17
-3.03
-3.98
-4.91
-5.74
-6.38
-6.80
-7.00
-7.04
-6.96
-6.84
-6.72
-6.64
-6.61
-6.61
-6.58
-6.39
-5.94
-5.15
-3.97
-2.45
-0.67
1.19
2.97
4.47
5.51
6.03
6.06
5.77
5.35
5.00
4.79
4.69
4.63
4.53
4.34
4.09
3.81
3.49
3.09
2.51
1.66
0.51
-0.87
-2.33
-3.70
-4.81
-5.58
-6.01
-6.21
-6.34
-6.55
-6.97
-7.61
-8.42
-9.24
-9.90
-10.25
-10.12
-9.37
-7.91
-5.73
-3.00
-0.08
2.53
4.39
5.27
5.22
4.59
3.82
3.27
3.10
3.28
3.65
4.08
4.49
4.78
4.86
4.58
3.88
2.81
1.54
0.32
-0.64
-1.22
-1.47
-1.47
-1.29
-0.98
-0.59
-0.24
-0.18
-0.69
-2.02
-4.19
-7.03
-10.17
-13.16
-15.53
-16.86
-16.75
-14.99
-11.65
-7.18
-2.42
1.69
4.34
5.25
4.61
2.93
0.77
-1.57
-4.08
-6.84
-9.85
-12.93
-15.81
-18.32
-20.54
-22.71
-25.01
-27.37
-29.32
-30.17
-29.32
-26.60
-22.25
-16.75
-10.31
-2.71
6.53
17.56
29.67
41.20
50.14
55.03
55.65
53.06
48.81
44.28
40.23
37.05
35.16
35.07
36.91
39.87
42.10
41.42
36.56
27.83
16.99
6.42
-2.06
-7.62
-10.28
-10.31
-8.05
-3.80
2.08
9.40
18.38
29.57
43.33
58.72
73.21
83.43
87.02
84.37
78.91
75.55
78.01
86.61
97.92
106.44
107.25
98.17
80.42
57.71
34.37
13.83
-2.15
-13.47
-21.25
-27.12
-32.79
-39.70
-48.74
-60.06
-72.95
-85.92
-97.03
-104.27
-106.10
-101.98
-92.51
-79.48
-65.40
-52.98
-44.37
-40.68
-41.55
-45.31
-49.54
-51.87
-50.85
-46.50
-40.19
-34.02
-29.88
-28.76
-30.50
-34.03
-38.03
-41.43
-43.68
-44.68
-44.57
-43.55
-41.80
-39.57
-37.23
-35.15
-33.63
-32.63
-31.79
-30.44
-27.97
-24.04
-18.80
-12.88
-7.13
-2.36
0.98
2.85
3.57
3.63
3.42
3.16
2.88
2.56
2.22
2.02
2.14
2.67
3.56
4.60
5.51
6.14
6.49
6.73
7.13
7.88
9.04
10.51
12.02
13.22
13.81
13.57
12.49
10.74
8.56
6.20
3.77
1.33
-1.03
-3.10
-4.49
-4.86
-3.98
-1.98
0.77
3.76
6.55
8.90
10.75
12.21
13.41
14.49
15.53
16.52
17.34
17.78
17.55
16.45
14.44
11.71
8.58
5.38
2.31
-0.57
-3.31
-5.83
-8.00
-9.60
-10.54
-10.99
-11.36
-12.14
-13.67
-15.95
-18.64
-21.27
-23.46
-25.18
-26.65
-28.24
-30.23
-32.70
-35.50
-38.31
-40.80
-42.57
-43.23
-42.40
-39.77
-35.23
-28.99
-21.55
-13.62
-5.88
1.22
7.70
13.85
20.04
26.37
32.51
37.78
41.51
43.49
44.14
44.33
44.84
45.91
47.00
47.11
45.33
41.36
35.72
29.52
23.97
20.01
18.14
18.38
20.42
23.63
27.24
30.44
32.71
34.06
35.07
36.56
39.14
42.72
46.57
49.52
50.65
49.82
47.94
46.79
48.64
55.44
68.16
86.17
107.12
127.29
142.40
148.95
145.30
132.30
113.16
92.28
73.67
59.46
49.27
40.57
29.97
14.78
-5.86
-30.67
-56.94
-81.47
-101.62
-115.67
-122.90
-123.41
-118.08
-108.45
-96.59
-84.66
-74.29
-66.11
-59.70
-53.89
-47.45
-39.52
-29.90
-18.95
-7.49
3.48
12.92
19.99
24.39
26.66
28.14
30.56
35.31
42.78
52.05
61.09
67.61
70.03
68.18
63.44
58.18
54.77
54.61
57.48
61.63
64.41
63.46
57.68
47.64
35.22
22.45
10.18
-2.65
-18.72
-40.92
-70.55
-106.31
-144.45
-180.16
-209.03
-228.15
-236.06
-232.40
-217.55
-192.75
-160.46
-124.28
-88.31
-56.06
-29.76
-10.19
2.88
10.10
12.26
10.55
6.74
3.02
1.31
2.43
5.82
10.03
13.39
14.87
14.32
12.25
9.32
5.80
1.47
-4.28
-11.97
-21.54
-32.09
-42.14
-50.11
-55.18
-57.66
-58.90
-60.51
-63.63
-68.51
-74.43
-80.26
-84.81
-86.96
-85.71
-80.13
-69.66
-54.38
-35.35
-14.39
6.37
25.06
40.45
52.01
59.67
63.63
64.28
62.20
58.27
53.41
48.40
43.67
39.42
35.68
32.47
29.72
27.25
24.79
22.03
18.82
15.29
11.79
8.71
6.48
5.45
5.93
8.23
12.58
19.02
27.39
37.30
48.07
58.78
68.39
75.94
81.10
84.54
88.02
93.92
104.31
119.84
139.05
158.50
173.80
181.14
178.81
167.72
151.00
132.62
115.88
102.42
91.80
82.04
70.46
54.60
32.91
5.16
-27.42
-62.30
-96.06
-124.96
-145.70
-156.13
-155.53
-144.54
-124.86
-98.94
-69.89
-41.30
-17.12
-1.21
3.47
-4.41
-23.74
-50.70
-79.26
-102.35
-113.73
-109.91
-91.34
-62.49
-30.59
-3.57
12.25
13.62
1.01
-21.86
-49.15
-74.48
-92.64
-101.11
-100.83
-95.67
-90.54
-89.03
-91.61
-95.53
-96.46
-90.88
-77.91
-59.51
-39.24
-20.62
-6.07
3.10
6.10
2.34
-8.24
-24.41
-43.29
-60.94
-73.77
-79.85
-79.45
-74.36
-66.67
-57.75
-48.03
-37.46
-26.33
-15.46
-5.82
2.14
8.86
15.34
22.38
29.86
36.64
41.25
42.81
41.64
39.02
36.42
34.54
32.92
30.46
26.27
20.51
14.66
10.95
11.36
16.69
26.18
37.78
48.96
57.55
62.39
63.52
61.96
59.21
56.76
55.64
56.19
57.97
59.94
60.80
59.46
55.58
49.75
43.38
38.17
35.41
35.41
37.35
39.59
40.40
38.61
34.11
27.85
21.36
16.17
13.18
12.41
13.04
13.93
14.08
13.08
11.23
9.19
7.65
6.86
6.56
6.08
4.75
2.21
-1.43
-5.60
-9.55
-12.55
-14.15
-14.19
-12.84
-10.47
-7.59
-4.70
-2.16
-0.16
1.30
2.27
2.83
2.95
2.62
1.83
0.70
-0.52
-1.59
-2.27
-2.46
-2.18
-1.53
-0.66
0.28
1.11
1.67
1.93
2.03
2.31
3.20
5.02
7.80
11.20
14.68
17.65
19.74
20.87
21.16
20.87
20.20
19.25
17.98
16.23
13.76
10.31
5.80
0.43
-5.21
-10.33
-14.20
-16.49
-17.30
-17.07
-16.22
-14.88
-12.99
-10.57
-8.05
-6.37
-6.44
-8.56
-11.87
-14.46
-14.17
-9.60
-0.83
10.63
22.49
32.73
40.22
44.68
46.25
44.91
40.29
32.03
20.36
6.49
-7.55
-19.45
-27.47
-30.96
-30.45
-27.27
-22.96
-18.70
-15.03
-11.89
-8.97
-6.01
-3.05
-0.35
1.80
3.38
4.63
5.88
7.28
8.62
9.44
9.42
8.68
7.91
8.06
9.76
12.90
16.54
19.40
20.43
19.35
16.76
13.76
11.37
10.07
9.66
9.47
8.74
6.94
3.94
-0.12
-4.92
-10.13
-15.40
-20.48
-25.13
-29.24
-32.79
-35.78
-38.09
-39.46
-39.53
-37.98
-34.77
-30.17
-24.70
-18.94
-13.40
-8.52
-4.64
-1.98
-0.59
-0.29
-0.59
-0.93
-0.87
-0.26
0.78
2.00
3.25
4.53
5.95
7.48
8.87
9.67
9.49
8.24
6.20
4.01
2.31
1.59
1.98
3.37
5.50
8.10
10.89
13.50
15.42
16.18
15.53
13.62
11.06
8.58
6.75
5.64
4.88
3.97
2.65
1.00
-0.55
-1.67
-2.29
-2.68
-3.11
-3.63
-3.93
-3.53
-2.20
-0.17
1.87
3.12
2.99
1.47
-0.99
-3.68
-6.04
-7.85
-9.21
-10.44
-11.75
-13.20
-14.58
-15.53
-15.65
-14.58
-12.04
-7.91
-2.34
4.24
11.11
17.31
21.88
24.08
23.64
20.85
16.52
11.66
7.26
3.94
1.86
0.83
0.39
0.17
-0.05
-0.25
-0.39
-0.49
-0.72
-1.28
-2.15
-3.05
-3.39
-2.67
-0.73
2.07
4.98
7.18
8.19
8.00
6.99
5.70
4.54
3.72
3.26
3.14
3.39
4.08
5.23
6.67
8.10
9.04
9.05
7.88
5.64
2.85
0.36
-0.97
-0.59
1.47
4.59
7.79
10.13
11.04
10.51
8.97
6.94
4.87
2.92
1.16
-0.28
-1.02
-0.54
1.58
5.35
10.31
15.58
20.25
23.59
25.27
25.30
23.86
21.17
17.44
12.92
7.95
2.95
-1.74
-5.93
-9.66
-13.11
-16.41
-19.45
-21.74
-22.56
-21.25
-17.67
-12.46
-6.99
-2.97
-1.78
-3.96
-8.97
-15.48
-21.80
-26.52
-28.87
-28.81
-26.89
-23.91
-20.68
-17.79
-15.47
-13.58
-11.77
-9.66
-7.10
-4.24
-1.54
0.46
1.37
1.06
-0.32
-2.41
-4.80
-7.08
-8.85
-9.78
-9.65
-8.43
-6.39
-4.09
-2.19
-1.22
-1.34
-2.32
-3.61
-4.62
-4.83
-3.99
-2.10
0.59
3.70
6.74
9.21
10.77
11.22
10.66
9.32
7.57
5.71
3.94
2.32
0.84
-0.54
-1.87
-3.15
-4.40
-5.59
-6.63
-7.40
-7.74
-7.61
-7.08
-6.39
-5.85
-5.71
-6.04
-6.69
-7.40
-7.95
-8.39
-8.91
-9.75
-10.92
-12.09
-12.71
-12.29
-10.75
-8.52
-6.38
-5.13
-5.26
-6.80
-9.38
-12.43
-15.37
-17.56
-18.35
-17.34
-14.68
-11.43
-9.54
-11.10
-17.46
-28.43
-42.23
-56.10
-67.41
-74.30
-75.94
-72.10
-62.84
-48.48
-30.02
-9.56
9.81
24.93
33.82
36.46
34.64
30.85
27.06
23.96
21.04
17.43
12.69
7.33
2.46
-0.83
-2.03
-1.40
0.38
2.59
4.79
6.72
8.14
8.57
7.41
4.20
-1.15
-8.18
-16.03
-23.66
-30.16
-34.86
-37.40
-37.62
-35.63
-31.85
-27.09
-22.46
-19.19
-18.25
-19.99
-24.04
-29.19
-33.56
-34.94
-31.21
-21.00
-4.12
18.14
43.14
67.46
87.80
101.75
108.26
107.74
101.68
92.02
80.64
68.95
57.72
47.17
37.07
27.01
16.64
5.89
-4.82
-14.56
-22.07
-26.21
-26.35
-22.78
-16.64
-9.57
-3.02
2.16
5.93
8.73
11.07
13.23
15.33
17.52
20.13
23.48
27.61
31.96
35.56
37.57
37.79
36.90
36.11
36.51
38.42
41.19
43.52
44.08
42.09
37.62
31.47
24.85
18.99
14.81
12.73
12.69
14.23
16.66
19.25
21.40
22.72
23.08
22.51
21.11
18.95
16.06
12.48
8.42
4.34
0.89
-1.35
-2.17
-1.88
-1.20
-0.81
-0.98
-1.38
-1.38
-0.51
1.18
3.07
4.30
4.25
2.94
0.99
-0.68
-1.25
-0.35
1.91
4.98
8.03
10.20
10.75
9.35
6.23
2.20
-1.61
-4.13
-4.75
-3.51
-0.99
2.01
4.74
6.77
7.96
8.36
8.12
7.45
6.60
5.95
5.87
6.68
8.50
11.16
14.16
16.75
17.97
16.87
12.67
5.04
-5.86
-19.35
-34.37
-49.74
-64.32
-77.17
-87.55
-94.97
-99.15
-99.99
-97.56
-92.07
-83.89
-73.63
-62.05
-50.04
-38.45
-27.97
-19.05
-11.86
-6.43
-2.69
-0.49
