1556618502.00
64.000000
-0.00
-0.00
-0.00
-0.00
-0.00
-0.00
-0.00
-0.00
-0.00
-0.00
0.00
0.01
0.01
-0.00
-0.03
-0.05
-0.05
0.00
0.13
0.36
0.66
1.01
1.37
1.72
2.06
2.40
2.79
3.24
3.80
4.42
5.06
5.66
6.20
6.68
7.15
7.68
8.31
9.14
10.09
11.04
11.88
12.56
13.14
13.76
14.65
15.96
17.91
20.32
22.90
25.38
27.58
29.57
31.68
34.32
37.81
42.54
48.15
54.10
59.83
64.97
69.58
74.14
79.34
85.71
93.76
103.00
112.62
121.73
129.77
136.75
143.30
150.75
157.77
166.64
177.95
191.79
206.97
220.57
228.25
225.36
208.53
176.87
132.76
80.05
23.07
-34.94
-92.44
-149.16
-205.23
-260.37
-313.74
-363.87
-409.83
-450.91
-486.50
-515.74
-537.23
-549.22
-549.96
-538.37
-514.21
-478.67
-433.88
-382.45
-327.02
-269.84
-212.63
-156.66
-102.95
-52.37
-5.90
35.58
71.43
101.35
125.50
144.38
158.69
169.15
176.37
180.75
182.57
182.07
179.51
175.23
169.65
163.18
156.15
148.81
141.30
133.69
126.02
118.33
110.69
103.16
95.80
88.68
81.83
75.25
68.95
62.95
57.25
51.86
46.78
42.03
37.59
33.45
29.61
26.07
22.81
19.83
17.11
14.67
12.48
10.54
8.83
7.35
6.07
4.97
4.05
3.27
2.62
2.09
1.65
1.30
1.01
0.79
0.61
0.47
0.37
0.29
0.23
0.18
0.15
0.13
0.12
0.12
0.12
0.13
0.15
0.17
0.20
0.23
0.26
0.29
0.33
0.37
0.42
0.46
0.51
0.56
0.61
0.67
0.74
0.80
0.88
0.95
1.04
1.13
1.24
1.36
1.49
1.63
1.79
1.97
2.17
2.38
2.62
2.89
3.18
3.50
3.86
4.24
4.66
5.11
5.60
6.13
6.69
7.31
7.96
8.66
9.42
10.20
11.04
11.92
12.85
13.84
14.88
15.98
17.12
18.28
19.42
20.49
21.43
22.14
22.54
22.56
22.10
21.11
19.59
17.55
15.04
12.14
8.91
5.51
2.06
-1.34
-4.56
-7.53
-10.19
-12.49
-14.41
-15.94
-17.05
-17.76
-18.10
-18.07
-17.69
-16.99
-15.98
-14.69
-13.15
-11.36
-9.37
-7.24
-4.99
-2.67
-0.27
2.17
4.67
7.24
9.90
12.59
15.27
17.90
20.46
22.87
25.09
27.05
28.74
30.21
31.33
32.06
32.45
32.60
32.65
32.78
33.30
34.52
36.88
40.45
45.31
51.57
59.20
68.08
77.96
88.60
99.74
111.22
122.49
133.15
142.87
151.32
158.04
162.48
163.91
161.21
156.44
150.27
143.19
135.54
127.42
118.71
109.18
98.63
87.01
74.60
61.41
47.66
33.60
19.29
4.62
-10.61
-26.54
-43.06
-59.75
-76.38
-92.62
-108.20
-123.14
-137.64
-152.06
-166.97
-183.07
-201.21
-222.14
-245.62
-269.91
-291.84
-307.59
-313.89
-309.20
-294.09
-270.81
-242.26
-210.86
-178.23
-145.61
-114.52
-87.07
-65.55
-51.78
-46.48
-49.20
-58.54
-72.43
-88.10
-102.08
-110.50
-110.00
-98.96
-78.61
-53.15
-28.26
-9.17
1.59
4.88
4.17
3.77
7.15
16.16
31.14
51.67
76.82
105.29
135.28
164.77
192.14
216.96
240.17
263.25
286.85
309.64
328.48
339.61
340.36
330.18
310.47
283.28
249.99
210.90
165.67
114.63
59.98
6.28
-40.35
-74.44
-93.63
-100.35
-101.69
-106.92
-123.40
-152.83
-189.61
-222.40
-238.33
-227.99
-189.11
-127.35
-54.10
17.49
76.38
116.23
135.63
136.72
122.97
97.05
59.71
10.43
-50.41
-119.20
-187.75
-244.52
-278.27
-282.68
-259.82
-220.43
-180.49
-155.57
-155.38
-180.58
-223.36
-271.12
-311.43
-335.95
-342.09
-332.27
-311.71
-285.93
-258.99
-232.67
-206.46
-178.39
-146.38
-109.56
-69.31
-29.16
6.30
33.11
49.45
56.32
57.08
56.12
57.39
63.53
75.63
93.31
115.15
138.62
160.37
177.01
186.25
187.59
182.61
174.33
166.35
161.90
163.52
172.94
190.57
215.16
243.45
270.65
291.69
303.15
304.98
300.58
295.18
292.87
294.14
295.10
289.13
270.21
235.72
187.77
132.08
75.61
24.09
-19.32
-53.73
-79.94
-99.85
-116.39
-133.43
-155.16
-184.47
-221.29
-261.42
-297.67
-322.47
-330.94
-322.90
-302.56
-276.34
-250.07
-227.07
-208.08
-192.56
-180.50
-173.12
-172.28
-178.51
-189.36
-198.97
-199.53
-184.04
-149.19
-96.99
-34.12
29.85
85.27
124.83
144.67
144.59
127.41
98.31
64.10
32.56
11.41
7.02
23.20
60.06
113.90
177.80
242.83
299.55
339.63
356.95
348.54
314.73
259.30
189.39
115.00
48.03
0.45
-18.09
-3.17
42.48
108.78
180.55
241.80
280.26
290.45
274.22
238.41
191.23
139.04
84.85
29.21
-27.60
-83.47
-133.71
-172.38
-194.54
-198.55
-186.76
-164.41
-137.75
-112.35
-92.39
-80.91
-80.38
-92.34
-116.34
-148.84
-183.51
-212.94
-231.10
-234.89
-224.28
-201.26
-168.56
-129.30
-87.32
-47.39
-14.27
8.84
21.76
27.01
27.47
23.68
12.78
-9.45
-44.66
-88.89
-132.57
-164.23
-175.50
-164.18
-133.89
-90.88
-40.49
14.27
71.43
127.33
175.08
205.61
210.93
187.21
136.43
65.65
-15.01
-94.59
-162.77
-210.93
-233.50
-229.11
-201.15
-156.78
-104.82
-52.98
-6.27
33.02
64.19
86.67
99.58
102.33
95.77
82.90
68.57
58.16
55.88
63.49
79.34
99.32
118.40
132.49
139.58
140.22
136.85
132.28
128.35
124.98
120.77
114.21
104.64
92.56
79.25
66.14
54.20
43.80
34.29
24.95
15.58
6.59
-1.45
-8.25
-13.85
-18.51
-22.50
-27.32
-33.86
-41.63
-48.97
-54.51
-57.98
-59.78
-60.40
-59.67
-59.69
-61.70
-64.57
-65.30
-61.65
-53.51
-42.44
-30.43
-18.89
-12.73
-14.70
-22.77
-31.08
-35.11
-34.63
-33.29
-36.14
-47.13
-73.85
-120.48
-185.13
-260.99
-341.77
-423.46
-502.42
-573.38
-592.19
-531.82
-402.84
-248.80
-112.73
-16.09
40.33
67.18
77.82
82.77
81.41
70.35
48.21
22.33
1.33
-9.35
-8.64
0.71
13.60
20.03
12.95
-7.45
-33.62
-56.17
-69.48
-71.07
-61.63
-43.98
-24.53
-8.54
2.46
10.81
19.37
29.54
41.17
53.10
63.99
71.66
75.21
75.82
76.52
80.08
87.88
99.82
114.78
131.28
147.72
163.28
178.26
193.91
211.52
232.17
256.58
284.78
315.68
346.71
373.88
392.62
399.15
391.77
371.58
342.08
307.91
273.32
241.15
212.56
187.34
164.65
143.56
123.45
104.23
86.39
70.94
59.11
51.79
48.76
48.51
48.21
44.39
33.94
15.00
-12.48
-46.78
-84.93
-123.46
-158.99
-188.64
-210.19
-222.17
-223.96
-215.95
-199.57
-177.15
-151.57
-125.58
-101.30
-80.17
-63.08
-50.80
-43.65
-40.80
-39.44
-35.05
-22.99
-0.99
28.71
59.47
82.70
92.18
87.63
75.80
67.74
73.82
98.55
137.99
181.37
215.42
229.83
220.75
190.95
146.88
94.68
37.72
-23.32
-87.58
-151.09
-205.74
-241.07
-248.14
-223.06
-168.65
-93.43
-9.39
70.87
135.95
176.85
188.06
168.76
123.86
63.85
3.07
-43.67
-64.62
-54.13
-13.98
47.27
116.34
178.80
222.42
239.80
229.35
194.43
141.26
76.50
6.22
-64.14
-129.08
-182.88
-220.63
-240.10
-243.15
-235.41
-224.04
-214.67
-209.37
-206.49
-202.43
-194.18
-181.24
-166.15
-153.39
-147.55
-151.31
-164.12
-181.78
-197.17
-202.09
-190.24
-160.07
-116.19
-68.65
-29.33
-7.40
-5.72
-19.99
-41.23
-59.81
-69.44
-68.83
-60.62
-48.32
-33.33
-13.85
13.75
51.61
97.46
143.79
179.92
196.32
188.76
160.24
119.69
78.25
44.98
24.13
14.98
13.94
17.28
22.82
30.01
38.71
48.01
55.81
59.55
57.58
50.52
41.46
35.00
35.63
45.80
64.97
89.64
114.92
136.33
151.67
161.37
167.73
173.45
180.22
188.05
195.39
199.87
198.82
189.82
170.89
140.84
99.60
48.59
-9.04
-68.74
-125.15
-173.13
-208.35
-227.90
-230.55
-216.99
-189.99
-154.07
-114.69
-76.84
-43.97
-17.51
2.62
16.74
24.50
24.87
17.46
4.23
-9.70
-17.05
-11.46
9.18
40.75
73.99
97.81
103.75
88.83
55.62
9.65
-44.06
-102.81
-165.49
-229.89
-290.05
-336.24
-357.93
-348.71
-309.97
-251.17
-186.05
-126.96
-80.18
-44.83
-15.63
12.79
42.21
70.36
93.04
107.25
112.87
111.91
106.39
96.61
81.23
58.94
30.77
1.01
-24.01
-38.58
-40.04
-29.65
-11.58
9.35
29.80
48.54
65.69
81.13
93.35
99.35
95.92
81.43
57.63
30.00
6.47
-5.30
-1.14
17.97
46.03
74.51
95.63
105.27
103.98
95.89
86.30
79.27
76.50
77.54
81.23
87.15
95.98
108.54
124.30
140.16
150.65
149.79
133.39
100.75
54.66
-0.14
-58.73
-116.96
-170.99
-216.38
-247.64
-259.58
-249.46
-218.77
-173.22
-120.71
-68.45
-20.93
20.24
55.38
85.23
110.12
129.96
144.54
153.62
156.58
152.14
138.46
113.74
76.91
28.49
-28.86
-90.19
-148.50
-195.84
-225.23
-232.84
-219.56
-190.65
-153.78
-116.31
-83.37
-57.65
-40.41
-32.25
-32.93
-40.14
-48.84
-52.39
-45.22
-25.84
2.21
32.04
56.98
73.75
83.27
89.18
94.72
100.66
105.17
105.21
98.00
81.63
54.96
17.81
-28.14
-78.03
-123.28
-152.98
-157.25
-131.11
-77.13
-5.56
68.63
130.01
166.71
172.89
149.00
100.73
37.11
-31.53
-95.59
-147.65
-183.41
-201.57
-203.09
-190.17
-165.63
-132.59
-94.63
-56.06
-21.71
3.38
14.91
10.32
-10.53
-44.84
-86.81
-128.32
-160.14
-173.79
-163.82
-129.51
-75.57
-11.53
50.28
97.92
123.12
123.84
105.36
78.89
58.27
55.19
74.93
114.29
162.95
207.50
236.45
244.13
231.75
205.79
174.93
146.95
126.84
116.37
114.68
119.57
128.60
139.75
151.56
162.70
171.48
175.70
173.07
162.01
142.50
116.14
85.25
51.65
15.94
-22.00
-61.45
-99.43
-130.76
-149.84
-153.60
-143.58
-125.97
-109.44
-102.10
-108.93
-131.26
-167.75
-215.74
-271.88
-331.40
-387.60
-431.93
-456.19
-455.21
-429.04
-383.24
-326.87
-269.56
-218.49
-177.13
-145.60
-122.09
-104.28
-90.30
-78.92
-69.23
-60.38
-51.45
-41.59
-30.44
-18.30
-6.18
4.83
14.11
21.95
29.35
37.38
46.23
54.84
61.14
62.97
59.31
51.16
41.31
33.48
30.77
34.55
44.05
56.94
70.42
82.56
92.77
101.52
109.53
116.91
123.20
128.18
132.89
139.75
151.56
169.45
191.10
210.68
220.73
215.58
193.99
159.86
120.41
83.09
52.98
32.17
20.66
17.70
22.27
32.46
44.39
52.25
50.03
34.18
5.61
-30.40
-66.27
-95.11
-113.07
-119.83
-117.40
-108.24
-93.89
-75.01
-52.41
-28.49
-7.99
2.71
-2.18
-24.78
-61.33
-102.03
-133.71
-144.61
-128.96
-89.24
-35.20
20.13
65.22
93.44
104.36
102.81
96.68
94.61
103.75
127.92
166.21
212.84
258.59
293.88
312.17
312.01
296.54
271.18
240.87
208.57
175.89
144.83
119.28
104.55
105.23
122.56
152.69
187.53
217.50
234.98
236.61
223.65
200.39
171.69
141.09
109.94
77.85
43.86
7.58
-30.18
-67.57
-102.35
-132.99
-159.20
-182.10
-203.78
-226.38
-251.38
-279.44
-311.03
-346.76
-387.23
-431.81
-477.55
-518.66
-547.78
-558.52
-547.89
-517.71
-473.63
-422.92
-371.63
-323.23
-278.53
-236.90
-197.51
-159.82
-123.44
-87.58
-50.89
-11.61
31.51
78.37
126.79
172.38
209.86
234.73
245.27
243.31
233.47
220.95
209.09
198.20
186.09
170.33
150.38
128.49
108.69
94.47
86.64
82.85
79.03
71.73
60.40
47.70
38.17
35.65
41.04
51.78
63.12
70.57
71.87
67.67
60.54
53.38
48.24
46.05
47.19
51.93
60.29
71.36
82.81
91.36
94.30
91.40
85.92
83.87
91.31
111.16
141.04
173.43
198.20
206.18
192.51
157.68
106.64
46.38
-16.27
-75.76
-127.54
-167.48
-191.67
-197.17
-183.44
-153.60
-114.48
-75.28
-44.59
-27.36
-22.81
-24.80
-24.34
-13.58
10.73
46.02
84.98
118.65
139.63
144.34
133.26
109.57
77.23
39.64
-0.77
-41.93
-81.24
-115.04
-138.82
-148.14
-139.88
-113.24
-70.15
-14.99
45.99
105.49
155.99
190.82
205.46
198.63
172.96
134.19
89.47
45.23
5.88
-26.21
-49.97
-64.80
-70.37
-67.04
-56.03
-38.90
-16.66
10.51
42.33
76.63
108.42
130.64
137.22
126.69
104.24
80.47
66.99
71.17
92.76
124.07
153.58
170.65
169.12
148.48
112.62
67.55
19.41
-26.82
-67.50
-100.25
-123.69
-137.34
-141.93
-139.50
-133.38
-127.54
-125.67
-130.00
-140.66
-155.80
-172.49
-188.09
-201.41
-212.91
-223.94
-235.53
-247.42
-257.82
-264.29
-264.87
-259.03
-247.89
-233.52
-217.79
-201.39
-183.31
-161.12
-131.58
-91.68
-40.01
21.94
88.83
151.38
197.84
217.08
202.70
156.32
88.63
16.89
-40.14
-68.12
-61.27
-23.45
34.21
97.18
151.43
186.30
195.76
178.77
138.91
83.33
21.18
-38.36
-87.91
-123.04
-142.60
-148.14
-142.55
-129.11
-110.33
-87.46
-60.60
-29.56
4.93
40.26
71.97
95.25
106.95
107.29
99.85
89.86
81.90
78.09
78.07
79.94
81.76
82.27
80.91
77.43
71.72
64.16
56.08
49.96
48.75
54.80
69.03
90.71
117.93
148.18
178.85
207.43
231.73
249.94
261.13
265.08
262.07
252.21
235.14
210.02
176.16
133.92
85.16
33.14
-18.21
-65.00
-103.89
-132.28
-148.34
-151.46
-142.43
-123.53
-98.22
-70.46
-44.37
-23.87
-12.82
-14.85
-32.76
-67.23
-115.53
-171.03
-224.19
-265.32
-287.69
-289.82
-275.16
-249.77
-218.84
-184.19
-144.30
-96.35
-39.54
22.49
81.73
128.11
152.85
151.27
123.90
76.03
16.15
-45.87
-100.63
-140.71
-162.12
-164.91
-152.83
-131.75
-107.66
-84.79
-64.99
-48.25
-33.78
-21.05
-9.84
0.22
10.20
21.50
34.88
49.28
61.44
66.90
61.67
44.26
16.56
-16.55
-48.68
-73.42
-85.48
-81.29
-59.61
-22.36
24.67
71.88
107.32
119.70
101.79
52.83
-20.94
-107.97
-194.54
-268.03
-319.40
-344.39
-343.28
-319.87
-279.99
-230.18
-176.37
-123.23
-73.75
-29.14
11.11
49.03
87.54
129.26
175.08
223.12
268.64
305.57
328.87
336.76
331.45
318.17
302.97
290.20
281.25
274.40
266.07
252.50
231.07
201.21
164.54
124.54
85.94
53.82
32.46
24.30
29.11
43.78
63.07
80.97
92.58
95.43
90.16
79.77
68.01
57.68
49.57
42.81
36.00
28.38
20.36
13.04
7.19
2.60
-1.68
-6.62
-12.34
-17.92
-21.95
-23.31
-21.91
-18.68
-15.10
-12.48
-11.51
-12.09
-13.55
-15.03
-15.80
-15.44
-13.82
-11.07
-7.28
-2.51
3.34
10.39
18.56
27.53
36.65
45.19
52.61
58.87
64.62
71.08
79.64
91.12
105.14
119.74
131.74
137.87
136.07
126.58
111.79
95.13
79.42
65.60
52.51
37.75
18.95
-5.38
-35.45
-70.29
-107.44
-142.70
-170.23
-183.78
-179.16
-156.68
-122.35
-86.23
-58.82
-46.87
-50.93
-66.13
-85.15
-102.13
-114.88
-124.74
-134.61
-146.77
-161.81
-179.02
-197.38
-216.16
-235.06
-253.63
-271.16
-287.07
-301.43
-314.91
-327.97
-339.75
-347.36
-346.65
-333.87
-307.59
-269.47
-223.53
-174.13
-124.19
-74.47
-24.12
27.83
81.20
133.92
182.20
221.52
247.73
258.41
253.50
235.58
209.05
178.99
149.69
123.95
102.94
86.88
75.82
69.86
68.99
72.45
78.44
84.31
87.44
86.28
80.83
72.71
64.32
57.86
54.43
53.75
54.54
55.18
54.51
52.08
48.10
43.07
37.48
31.69
26.01
20.82
16.53
13.48
11.67
10.71
9.86
8.28
5.32
0.70
-5.42
-12.55
-20.04
-27.32
-33.79
-38.95
-42.28
-43.43
-42.36
-39.51
-35.82
-32.47
-30.52
-30.43
-31.78
-33.35
-33.52
-30.93
-24.96
-15.95
-5.07
6.28
16.85
25.95
33.25
38.45
40.81
39.12
31.96
18.52
-0.83
-24.27
-48.82
-71.25
-88.94
-100.34
-104.97
-102.95
-94.74
-81.17
-63.99
-46.07
-31.03
-21.93
-19.84
-23.17
-28.27
-31.20
-29.73
-24.63
-18.73
-15.15
-15.42
-18.80
-23.12
-26.16
-27.11
-26.68
-26.64
-28.25
-31.45
-34.82
-36.60
-35.91
-33.08
-29.35
-25.65
-22.27
-17.92
-10.29
2.72
21.39
43.60
65.77
84.39
97.56
103.87
103.81
99.52
94.07
90.10
88.98
91.08
96.01
102.91
107.13
104.70
95.00
81.92
71.48
68.37
73.75
84.52
94.44
91.18
65.68
17.01
-46.73
-113.43
-173.28
-221.35
-257.59
-284.84
-313.70
-352.63
-404.46
-465.95
-532.65
-602.73
-675.96
-750.75
-778.54
-724.69
-588.24
-406.15
-224.97
-75.62
31.22
99.20
139.27
163.57
171.95
164.28
141.43
109.26
76.78
52.20
40.66
43.30
57.21
71.42
75.36
63.60
39.70
13.04
-6.63
-13.08
-5.17
13.64
34.12
48.31
52.96
51.01
48.35
50.16
59.10
75.49
98.05
123.21
147.88
170.39
191.43
212.63
235.36
260.44
288.50
320.47
356.97
398.16
442.64
486.72
523.70
545.08
543.48
515.77
464.81
398.73
328.11
262.77
209.72
171.47
146.89
132.97
126.52
124.85
125.61
126.28
124.66
120.29
113.56
106.03
100.31
99.14
103.88
113.19
122.62
126.29
120.20
102.51
74.44
40.00
4.73
-26.25
-50.01
-66.22
-83.48
-104.33
-125.97
-142.57
-149.66
-146.56
-135.86
-120.71
-106.06
-95.57
-89.96
-88.78
-91.44
-97.81
-108.12
-122.22
-139.95
-161.09
-184.91
-210.07
-235.89
-263.35
-293.46
-325.02
-353.09
-369.74
-367.00
-340.47
-292.16
-229.61
-164.51
-107.08
-62.27
-28.87
-1.93
23.79
51.65
82.35
117.46
156.96
199.76
242.01
276.24
292.47
281.80
240.69
172.89
92.28
15.06
-44.34
-77.93
-85.79
-74.57
-53.68
-24.30
-1.12
16.64
30.36
42.02
53.18
65.02
78.72
95.66
116.65
139.79
163.53
183.25
194.39
194.18
182.87
163.56
140.63
117.96
96.45
76.54
55.70
30.94
-0.03
-37.94
-81.73
-128.95
-176.49
-222.03
-262.80
-298.24
-329.05
-357.12
-385.09
-415.86
-451.51
-492.02
-534.74
-573.59
-601.46
-612.13
-602.65
-574.44
-532.65
-484.02
-433.93
-384.76
-335.59
-284.23
-229.38
-172.02
-115.13
-62.02
-14.81
26.34
62.47
94.52
122.61
146.17
164.72
178.82
190.35
201.12
211.84
221.53
228.28
230.61
228.61
224.09
219.54
216.69
215.62
214.86
212.21
205.94
195.61
181.91
166.30
150.06
133.91
117.87
101.94
86.53
72.75
62.01
55.14
51.91
50.77
49.46
45.88
38.83
28.23
14.81
-0.34
-16.33
-32.47
-48.13
-62.69
-75.54
-86.16
-94.32
-99.94
-102.95
-103.34
-100.99
-95.69
-87.21
-75.18
-59.24
-39.26
-15.69
10.39
37.26
63.31
87.83
111.63
137.16
167.68
206.02
253.13
307.28
363.81
416.07
457.01
480.99
485.12
469.80
438.46
396.83
351.91
310.38
277.43
255.67
244.64
240.97
239.48
235.02
224.28
206.88
184.65
160.60
137.88
118.95
105.23
97.12
94.36
96.34
102.06
109.31
115.15
117.33
115.30
110.08
103.23
95.84
88.01
78.74
65.32
44.83
16.55
-16.98
-51.20
-81.81
-106.36
-124.70
-138.60
-152.41
-171.66
-200.63
-240.74
-290.71
-347.24
-404.92
-456.45
-485.81
-477.38
-429.24
-357.62
-285.50
-228.64
-191.29
-169.24
-155.20
-143.29
-132.48
-125.17
-123.21
-125.22
-127.27
-125.79
-119.24
-108.41
-95.53
-84.48
-78.78
-79.59
-84.94
-91.07
-94.96
-95.35
-92.62
-88.02
-83.69
-81.45
-81.67
-83.43
-83.82
-80.78
-73.69
-63.29
-50.94
-38.67
-28.41
-21.21
-16.90
-14.47
-13.02
-12.04
-11.63
-11.93
-13.51
-16.94
-22.38
-29.37
-36.82
-43.71
-49.35
-53.64
-56.54
-58.55
-60.09
-61.14
-60.95
-57.93
-50.15
-35.61
-16.22
6.59
31.04
55.57
79.39
102.61
126.13
150.86
177.17
204.81
233.85
264.48
296.95
330.59
362.79
388.88
403.62
403.45
388.33
362.08
329.87
295.26
258.46
217.18
169.79
118.24
68.43
27.37
-0.69
-16.94
-27.02
-37.05
-49.57
-61.74
-67.44
-61.48
-43.40
-18.06
6.89
24.94
33.53
33.86
29.17
22.04
12.69
-1.15
-22.94
-55.89
-101.76
-160.64
-230.94
-308.50
-385.96
-453.46
-501.19
-522.61
-516.60
-487.54
-443.30
-392.28
-339.58
-285.41
-226.40
-158.77
-80.91
6.39
100.79
199.24
292.77
365.90
402.19
393.86
347.07
278.07
205.09
141.72
94.30
62.22
41.58
28.80
22.31
21.76
26.11
32.96
38.93
41.16
38.14
30.61
21.31
13.59
9.65
9.15
10.39
9.92
5.15
-5.02
-19.95
-37.38
-54.64
-69.93
-83.53
-97.02
-111.83
-127.37
-140.99
-148.76
-147.05
-134.36
-111.80
-82.90
-52.03
-22.92
2.36
23.17
39.68
52.38
59.53
59.61
51.62
35.74
13.69
-11.32
-35.43
-55.24
-68.30
-73.66
-71.09
-61.16
-45.32
-26.45
-8.71
3.13
5.33
-3.05
-19.45
-38.10
-52.19
-56.09
-47.19
-26.38
2.51
34.18
63.86
88.71
108.64
125.57
141.79
158.37
174.42
187.64
195.65
197.32
192.81
182.90
168.08
148.33
124.00
96.69
69.52
45.92
27.94
15.13
5.13
-4.53
-14.59
-23.23
-27.19
-23.90
-13.42
1.28
15.50
25.07
28.37
26.75
23.55
22.22
24.53
29.96
36.30
40.90
41.85
38.68
32.14
23.89
15.78
9.48
6.23
6.60
10.45
16.60
23.07
27.34
27.12
21.07
9.28
-6.65
-24.06
-39.98
-51.84
-57.96
-57.92
-52.46
-43.18
-32.20
-21.49
-12.56
-6.11
-2.11
-0.07
0.48
-0.32
-2.76
-7.37
-14.47
-23.75
-34.19
-44.24
-52.42
-57.88
-60.75
-61.94
-62.69
-63.75
-65.09
-65.87
-65.08
-62.12
-57.32
-51.78
-47.02
-44.37
-44.38
-46.65
-49.87
-52.16
-51.46
-46.22
-36.01
-22.03
-7.12
5.14
11.65
11.02
4.14
-6.25
-16.64
-24.13
-27.27
-26.36
-22.93
-18.95
-15.93
-14.41
-13.91
-13.26
-11.30
-7.59
-2.89
0.98
1.59
-2.94
-13.06
-27.35
-42.75
-55.68
-63.06
-63.38
-56.98
-45.70
-31.99
-17.88
-4.55
7.58
18.26
26.99
33.08
36.16
36.92
37.34
40.15
47.59
60.19
76.17
92.02
103.92
109.27
107.66
100.71
91.07
80.97
71.38
61.81
51.02
38.08
23.00
6.90
-8.61
-22.07
-32.84
-41.04
-47.29
-52.24
-56.03
-58.26
-58.11
-54.88
-48.56
-40.10
-31.33
-24.24
-20.05
-18.56
-18.11
-16.37
-11.57
-3.45
6.70
16.63
24.39
29.11
31.25
32.15
33.27
35.70
39.85
45.52
51.98
58.30
63.52
67.10
69.05
70.01
70.90
72.41
74.69
77.21
79.07
79.12
75.92
67.51
51.46
25.56
-10.80
-55.20
-101.86
-142.72
-170.13
-179.72
-172.21
-153.03
-129.98
-110.11
-97.22
-91.51
-90.77
-92.70
-96.47
-102.96
-113.62
-128.77
-146.82
-164.57
-178.67
-187.38
-191.29
-192.91
-195.04
-199.04
-203.91
-206.85
-204.84
-196.41
-182.59
-166.33
-150.85
-137.76
-126.20
-113.25
-95.69
-71.59
-41.34
-7.21
27.79
61.16
91.53
118.37
141.52
160.74
175.71
186.23
192.28
194.06
191.70
185.48
176.17
165.42
155.75
150.01
150.31
156.80
167.23
176.91
179.96
171.16
148.04
112.36
70.55
32.63
9.36
8.49
31.33
71.50
116.70
153.19
170.93
166.98
145.57
115.02
83.65
56.50
34.62
16.23
-1.37
-20.65
-43.86
-73.25
-110.86
-157.21
-209.99
-263.72
-311.29
-346.61
-366.71
-372.53
-367.61
-355.94
-339.96
-319.90
-294.55
-262.57
-223.57
-178.17
-127.31
-71.50
-10.84
54.14
121.16
185.47
240.46
279.51
298.29
296.34
277.03
246.11
209.68
172.50
137.38
105.58
77.43
52.83
31.38
12.08
-6.70
-27.08
-50.85
-78.84
-110.11
-141.93
-170.18
-190.35
-198.76
-193.47
-174.89
-145.55
-109.49
-71.27
-35.12
-4.19
19.77
36.58
47.65
55.86
65.07
79.15
100.76
130.14
164.45
198.30
225.02
238.86
236.91
219.89
191.78
158.25
124.95
96.12
74.21
60.00
52.93
51.45
53.21
55.51
56.06
54.01
50.35
47.72
48.98
55.87
67.85
82.23
95.31
103.80
106.01
101.86
92.42
78.96
62.66
44.64
26.24
9.20
-4.77
-14.60
-20.32
-22.99
-24.23
-25.27
-26.47
-27.12
-25.88
-21.59
-13.97
-4.05
6.15
14.38
19.06
19.94
18.08
15.28
13.10
12.30
12.65
13.52
14.44
15.64
18.05
22.90
31.15
42.88
57.14
71.98
85.00
94.09
98.01
96.85
91.92
85.27
78.89
74.18
71.61
70.88
71.57
73.49
76.97
82.57
90.48
100.08
109.75
117.32
120.64
118.41
110.50
97.89
82.11
64.63
46.21
26.64
4.95
-20.13
-49.31
-82.13
-116.62
-149.62
-177.81
-198.90
-212.53
-220.19
-224.46
-227.51
-230.12
-231.21
-228.52
-219.66
-203.22
-179.59
-151.21
-122.41
-98.89
-86.97
-92.19
-117.64
-162.40
-220.56
-282.05
-335.02
-369.40
-380.09
-368.29
-340.37
-304.59
-267.87
-233.81
-203.14
-175.61
-151.82
-133.57
-122.42
-117.72
-115.57
-110.04
-95.85
-71.10
-38.16
-2.54
29.87
55.21
72.57
83.42
89.83
93.29
94.29
92.85
89.16
83.96
78.41
73.52
69.89
67.60
66.43
66.01
65.87
65.48
64.24
61.71
57.70
52.43
46.34
39.98
33.81
28.19
23.60
20.66
20.21
22.98
29.32
38.78
50.14
61.63
71.46
78.43
82.18
83.12
82.04
79.69
76.62
73.25
70.09
67.83
67.19
68.64
72.12
76.92
82.13
86.89
90.81
93.97
96.67
99.32
102.08
104.99
107.83
110.32
112.35
114.03
115.92
118.68
122.91
128.57
134.89
140.63
144.66
146.76
147.87
149.92
154.98
164.53
178.87
196.97
216.69
234.95
248.35
253.58
248.27
231.58
204.56
169.79
130.63
90.10
49.91
10.25
-29.82
-71.03
-112.95
-153.40
-188.95
-216.45
-234.33
-243.55
-246.97
-247.93
-248.60
-249.32
-249.21
-247.46
-244.74
-243.12
-245.14
-251.94
-262.29
-272.50
-277.85
-274.47
-260.73
-237.84
-209.19
-179.00
-150.64
-125.82
-104.30
-84.70
-65.70
-46.87
-28.97
-13.24
-0.56
9.22
17.16
24.41
31.47
37.62
41.39
41.37
37.25
30.18
22.40
16.38
13.57
13.98
16.14
18.04
17.99
15.31
10.43
4.33
-2.02
-8.18
-14.17
-20.23
-26.24
-31.58
-35.26
-36.36
-34.60
-30.51
-25.29
-20.17
-15.88
-12.26
-8.35
-2.86
5.19
15.81
28.11
40.63
52.05
61.78
70.07
77.69
85.43
93.68
102.25
110.70
118.56
125.69
132.25
138.44
144.18
148.85
151.48
151.03
146.94
139.42
129.51
118.83
109.14
101.97
98.20
97.93
100.41
104.06
106.54
105.16
97.49
82.15
59.53
31.94
3.29
-22.11
-40.86
-51.46
-54.63
-52.62
-48.16
-43.30
-38.91
-34.85
-30.59
-25.91
-21.10
-16.97
-14.35
-13.81
-15.34
-18.46
-22.25
-25.53
-27.12
-26.12
-22.28
-16.00
-8.22
-0.10
7.12
12.19
14.01
11.90
6.09
-2.09
-10.27
-15.86
-16.91
-12.96
-5.20
4.08
12.28
17.43
18.56
15.72
9.71
1.69
-6.99
-15.19
-22.12
-27.54
-31.51
-34.13
-35.24
-34.67
-32.58
-29.73
-27.47
-27.02
-28.67
-31.17
-32.15
-29.12
-20.86
-8.18
6.33
19.54
29.29
35.26
38.78
41.76
45.33
49.32
52.45
53.43
51.77
48.12
43.79
39.88
36.76
33.91
30.50
25.94
20.29
14.25
8.82
4.85
2.63
1.93
2.04
2.17
1.60
-0.10
-2.97
-6.71
-10.72
-14.30
-16.86
-18.31
-19.03
-19.80
-21.31
-23.66
-26.05
-27.05
-25.27
-20.20
-12.70
-4.73
1.52
4.72
5.03
3.84
2.96
3.59
5.78
8.53
10.52
10.81
9.28
6.54
3.41
0.52
-1.97
-4.19
-6.36
-8.48
-10.40
-11.95
-13.12
-14.18
-15.50
-17.46
-20.23
-23.76
-27.77
-31.89
-35.83
-39.47
-42.92
-46.58
-51.02
-56.72
-63.86
-72.12
-80.70
-88.66
-95.12
-99.62
-102.15
-103.01
-102.58
-101.26
-99.42
-97.47
-95.93
-95.21
-95.60
-97.11
-99.46
-102.12
-104.41
-105.67
-105.30
-102.91
-98.20
-90.84
-80.18
-65.16
-44.65
-18.20
13.19
46.81
78.57
104.33
121.21
128.45
127.47
120.92
111.59
101.49
91.64
82.45
74.21
67.31
62.01
58.07
54.39
49.60
42.73
34.00
25.05
18.27
15.76
18.24
24.81
33.25
41.31
47.49
51.44
53.67
54.83
55.23
54.74
53.24
50.75
47.60
44.21
40.80
37.43
34.07
30.83
27.85
25.31
23.16
21.20
19.26
17.26
15.35
13.67
12.18
10.54
8.27
4.99
0.65
-4.34
-9.49
-14.39
-18.98
-23.35
-27.54
-31.23
-33.67
-33.97
-31.46
-26.14
-18.73
-10.53
-2.85
3.44
8.09
11.30
13.29
13.94
12.83
9.63
4.59
-1.22
-6.13
-8.66
-8.15
-5.16
-1.10
2.41
4.31
4.36
2.99
0.83
-1.77
-4.69
-7.91
-11.07
-13.28
-13.22
-9.65
-2.01
9.15
21.98
33.98
42.72
46.88
46.79
44.40
42.35
42.86
46.74
52.95
59.28
63.27
63.57
60.48
55.98
52.84
53.42
58.65
67.43
76.98
83.60
83.88
75.79
59.49
37.72
15.61
-0.05
-2.59
12.33
44.41
87.96
133.27
169.87
190.29
192.49
179.70
157.80
132.38
106.61
81.42
56.88
33.68
13.40
-2.35
-13.13
-20.20
-26.04
-33.16
-43.14
-56.24
-71.64
-87.79
-102.94
-115.38
-124.08
-129.03
-131.24
-132.35
-133.63
-135.33
-136.51
-135.80
-132.43
-126.99
-121.23
-117.24
-116.36
-118.39
-121.65
-123.69
-122.49
-117.17
-108.18
-96.76
-84.01
-70.42
-55.79
-39.93
-23.23
-6.96
7.12
17.60
24.09
27.50
29.45
31.52
34.46
38.14
41.86
44.94
47.08
48.33
48.84
48.66
47.80
46.31
44.43
42.61
41.23
40.48
40.22
40.06
39.62
38.66
37.21
35.38
33.35
31.27
29.47
28.57
29.39
32.72
38.65
46.09
52.60
55.02
50.48
37.59
16.98
-8.62
-35.14
-58.18
-74.02
-80.56
-77.81
-67.96
-54.67
-42.00
-33.03
-28.89
-28.71
-30.54
-32.66
-34.41
-36.21
-38.67
-41.64
-44.05
-44.64
-42.97
-39.91
-37.22
-36.42
-38.05
-41.48
-45.70
-50.20
-55.35
-61.99
-70.57
-80.50
-90.00
-96.66
-98.27
-93.49
-82.55
-67.30
-50.97
-37.18
-28.77
-26.71
-29.75
-35.08
-39.29
-39.41
-33.25
-19.48
2.24
30.71
62.72
93.32
117.19
130.76
133.59
128.41
119.40
109.91
101.08
92.06
81.66
69.69
57.46
46.81
38.61
31.89
24.37
13.98
0.29
-14.95
-28.76
-38.41
-42.76
-42.64
-39.96
-36.49
-32.88
-28.71
-23.06
-15.39
-5.78
5.31
17.47
30.39
43.43
55.30
64.02
67.95
66.77
61.96
56.03
51.13
47.66
44.01
37.69
26.88
11.81
-5.39
-21.76
-34.89
-43.86
-49.15
-52.00
-53.46
-54.04
-53.65
-52.01
-48.95
-44.58
-39.38
-34.02
-29.24
-25.57
-23.10
-21.33
-19.23
-15.61
-9.59
-1.15
8.74
18.26
25.49
29.14
29.24
27.14
24.89
24.34
26.27
30.28
35.13
39.59
42.94
45.14
46.67
48.00
49.52
51.38
53.73
56.51
59.47
61.98
63.10
61.88
57.75
50.93
42.38
33.66
26.32
21.36
18.90
18.17
17.82
16.49
13.27
7.96
1.02
-6.77
-14.67
-22.05
-28.52
-33.82
-37.93
-41.07
-43.78
-46.76
-50.60
-55.60
-61.64
-68.46
-75.77
-83.46
-91.50
-99.61
-106.93
-111.95
-112.83
-108.07
-97.38
-82.04
-64.69
-48.43
-35.55
-26.86
-21.67
-18.67
-16.78
-15.52
-14.52
-12.93
-9.25
-1.95
9.38
23.40
37.25
47.97
53.95
55.66
55.18
54.74
55.55
57.25
58.63
58.57
56.82
53.91
50.71
47.82
45.42
43.36
41.40
39.42
37.27
34.75
31.61
27.69
23.22
18.86
15.53
13.94
14.26
15.88
17.74
18.85
18.75
17.75
16.71
16.71
18.49
22.28
27.72
34.03
40.20
45.14
47.97
48.31
46.56
43.95
42.27
43.19
47.48
54.53
62.34
68.23
69.95
66.70
59.60
51.31
44.70
41.28
40.08
37.73
30.03
14.14
-9.62
-37.44
-63.38
-81.74
-88.91
-84.14
-68.97
-46.03
-18.14
11.92
41.65
69.17
94.13
118.53
146.39
181.94
226.94
278.75
330.37
372.98
399.44
407.11
398.51
379.53
356.50
333.59
312.09
291.17
269.73
247.52
225.44
204.58
185.25
166.41
146.01
122.13
93.85
61.67
27.07
-8.10
-42.18
-73.48
-99.86
-118.80
-127.98
-126.61
-116.38
-101.25
-86.03
-74.34
-67.19
-63.05
-59.43
-54.80
-49.81
-46.96
-48.97
-57.16
-70.58
-86.71
-102.73
-117.08
-129.95
-143.08
-158.56
-177.85
-201.34
-228.18
-256.90
-285.72
-312.63
-335.29
-351.05
-357.42
-352.94
-338.19
-315.84
-289.98
-264.47
-241.47
-220.78
-200.55
-178.93
-155.57
-132.35
-112.57
-99.44
-94.24
-95.62
-100.11
-103.49
-102.61
-96.34
-85.82
-73.56
-62.18
-53.27
-46.84
-41.82
-36.94
-31.67
-26.44
-22.12
-18.89
-15.54
-9.60
1.22
16.99
34.31
46.88
48.39
35.86
11.87
-16.14
-39.07
-50.14
-47.48
-34.03
-15.30
3.53
18.97
28.75
30.59
21.80
0.61
-31.73
-69.55
-104.01
-126.27
-131.37
-120.31
-99.05
-75.49
-55.68
-41.87
-32.74
-25.51
-18.07
-9.84
-1.31
7.21
16.04
25.64
35.63
44.42
49.93
51.21
49.49
47.82
49.18
54.33
60.89
64.51
61.69
52.25
40.05
31.17
30.70
40.25
57.39
77.39
95.83
110.30
120.33
126.03
126.83
121.03
106.84
83.63
52.42
15.04
-27.15
-74.12
-126.09
-181.42
-234.98
-278.20
-301.35
-297.08
-263.50
-205.60
-134.47
-64.77
-10.88
17.09
16.26
-8.37
-45.95
-83.84
-112.18
-126.67
-128.75
-123.20
-114.83
-106.19
-97.29
-87.27
-76.02
-64.88
-55.86
-50.16
-47.16
-44.56
-39.54
-30.41
-17.79
-4.77
4.05
4.63
-4.41
-20.67
-38.58
-51.70
-55.62
-49.87
-37.93
-25.31
-16.83
-14.39
-16.58
-19.95
-21.19
-19.09
-14.94
-11.71
-12.19
-17.41
-25.89
-34.12
-37.99
-34.54
-23.20
-5.96
13.76
32.97
50.70
68.33
88.11
110.79
133.78
151.33
156.67
145.26
117.26
77.45
33.10
-9.31
-46.27
-77.04
-101.66
-118.85
-125.73
-119.39
-99.82
-71.35
-41.79
-19.07
-7.49
-5.43
-6.34
-2.21
12.35
37.25
67.32
95.03
114.20
122.51
121.66
115.81
109.14
104.18
101.30
99.61
97.99
95.88
93.28
90.19
86.19
80.50
72.57
62.64
51.85
41.76
33.49
27.18
21.94
16.49
9.94
2.18
-6.24
-14.64
-22.75
-30.91
-39.85
-50.37
-62.81
-76.83
-91.21
-103.91
-112.67
-115.67
-112.30
-103.25
-90.26
-75.19
-59.50
-44.20
-30.14
-18.33
-9.51
-3.78
-0.36
1.77
3.07
2.91
0.17
-5.09
-10.45
-11.06
-1.77
20.16
53.08
91.21
127.07
154.68
171.70
179.18
179.85
175.72
167.08
152.99
132.85
107.81
80.89
55.93
35.79
21.18
10.77
2.31
-5.80
-13.70
-20.28
-24.21
-24.96
-23.38
-21.23
-20.24
-21.28
-24.00
-27.36
-30.66
-34.33
-39.80
-48.59
-60.74
-73.88
-83.53
-84.79
-74.78
-53.90
-25.56
5.68
36.15
64.12
89.14
110.57
126.64
134.81
133.45
123.39
108.10
92.31
79.72
71.49
66.23
61.40
55.02
46.70
37.47
28.75
21.51
15.90
11.49
7.73
4.45
1.83
0.37
0.49
2.30
5.52
9.51
13.47
16.75
19.31
21.71
24.93
29.72
35.98
42.65
48.01
50.71
50.40
48.02
45.32
44.06
45.15
48.40
52.77
56.88
59.60
60.24
58.71
55.22
50.14
43.73
35.95
26.61
15.73
3.99
-7.10
-15.61
-20.07
-20.45
-18.29
-16.02
-15.56
-17.25
-19.81
-21.32
-20.60
-17.88
-14.43
-11.31
-8.57
-5.17
-0.07
6.55
12.84
16.19
14.82
9.13
1.62
-4.48
-7.03
-6.14
-3.86
-2.73
-4.29
-8.29
-13.15
-17.03
-18.81
-18.43
-16.47
-13.76
-10.93
-8.52
-7.00
-6.68
-7.51
-8.80
-9.48
-8.59
-5.84
-1.75
2.47
5.60
6.86
6.29
4.63
3.14
3.28
6.16
12.08
20.05
27.57
31.07
26.93
13.09
-9.83
-38.09
-65.86
-86.96
-96.97
-94.67
-82.25
-64.38
-46.28
-31.99
-23.18
-19.34
-18.63
-19.20
-20.01
-21.01
-22.87
-26.28
-31.60
-38.58
-46.43
-54.03
-60.29
-64.62
-67.23
-69.32
-72.70
-79.16
-89.82
-104.88
-123.73
-145.08
-167.06
-187.09
-202.15
-209.44
-207.35
-196.10
-177.68
-154.81
-129.53
-102.42
-72.77
-39.89
-4.11
32.77
68.14
99.58
125.39
144.67
156.92
162.07
160.86
155.12
147.38
139.87
133.52
127.58
120.50
111.13
99.82
88.36
78.86
72.48
68.78
66.17
63.10
58.95
54.22
50.04
47.40
46.85
48.60
52.52
58.23
64.77
70.48
73.47
72.52
67.99
62.06
58.08
59.01
65.98
77.46
89.53
97.13
95.82
83.25
60.06
29.93
-1.06
-25.87
-38.47
-35.77
-18.87
6.97
33.97
54.29
62.58
57.46
41.44
19.42
-3.28
-22.49
-35.94
-42.88
-43.52
-38.64
-29.53
-18.18
-7.19
0.59
3.20
0.20
-6.80
-14.67
-20.12
-21.12
-18.08
-13.72
-11.70
-14.94
-23.95
-36.42
-48.20
-55.07
-54.54
-46.84
-34.68
-21.93
-12.13
-7.14
-6.91
-9.95
-14.15
-17.66
-19.48
-19.58
-18.97
-19.46
-23.12
-31.44
-44.25
-59.16
-71.76
-77.05
-71.61
-55.26
-31.29
-5.08
18.10
34.94
44.37
46.79
42.91
33.38
19.28
2.91
-12.15
-22.14
-24.48
-18.90
-7.44
6.79
20.60
31.24
36.46
34.45
24.49
8.01
-10.96
-26.76
-34.30
-31.56
-20.63
-6.91
3.29
5.13
-3.39
-21.40
-45.74
-71.76
-93.65
-105.02
-100.25
-76.56
-36.27
12.78
59.00
90.89
101.57
91.58
68.88
45.32
31.35
31.32
41.67
52.93
54.65
41.02
13.86
-18.16
-44.19
-56.75
-55.29
-45.60
-35.89
-32.14
-35.32
-42.38
-49.44
-54.79
-59.31
-64.53
-70.07
-72.57
-67.54
-52.26
-28.13
-0.44
24.23
41.38
50.46
54.26
56.57
59.45
62.07
61.27
53.54
37.30
14.51
-9.17
-25.90
-28.68
-14.91
11.67
41.61
63.43
68.79
56.46
32.78
8.31
-7.44
-10.46
-2.96
9.18
20.73
30.15
39.18
50.09
62.89
74.83
82.50
85.09
85.91
90.94
105.01
127.78
152.40
167.91
164.47
138.41
94.58
44.21
-0.02
-29.47
-42.57
-43.80
-40.01
-36.06
-32.71
-27.30
-17.01
-1.62
15.84
30.86
40.54
45.27
48.09
52.23
58.61
65.27
69.04
68.33
64.66
62.07
64.35
72.26
82.69
90.35
91.14
84.44
73.16
61.32
51.19
41.72
29.98
13.97
-5.19
-23.21
-35.40
-39.82
-38.93
-37.98
-41.57
-50.61
-61.72
-69.79
-71.48
-67.60
-62.58
-61.93
-68.81
-82.33
-98.26
-111.27
-117.68
-116.88
-111.05
-103.49
-96.97
-92.65
-90.08
-87.84
-84.39
-78.81
-70.99
-61.73
-52.55
-45.48
-42.77
-46.06
-55.51
-68.85
-81.55
-88.16
-84.53
-69.94
-47.58
-23.17
-2.25
12.22
20.66
25.45
28.73
30.52
28.76
21.19
7.71
-8.62
-22.74
-30.18
-29.55
-23.17
-15.72
-11.66
-13.05
-18.99
-26.49
-32.19
-33.59
-29.77
-21.36
-10.18
1.09
9.60
13.15
11.34
6.24
2.04
3.27
12.42
28.36
46.59
61.41
68.74
68.09
62.39
56.05
52.44
52.38
54.43
56.20
56.00
53.55
49.81
46.16
43.62
42.74
43.59
45.93
49.20
52.71
55.80
57.75
57.88
55.20
48.68
37.89
23.81
9.12
-2.56
-8.30
-7.58
-2.53
3.25
6.96
8.15
8.53
10.17
13.45
16.41
15.92
10.11
-0.10
-11.24
-19.36
-22.38
-21.18
-18.87
-18.59
-21.66
-26.83
-31.37
-32.95
-31.06
-27.29
-23.95
-22.50
-22.41
-21.41
-16.89
-7.71
4.79
17.16
25.42
27.16
22.76
15.21
8.36
4.88
4.93
6.40
6.61
4.04
-0.63
-5.21
-7.49
-6.86
-4.61
-3.05
-3.93
-7.42
-12.12
-16.04
-17.95
-17.90
-16.92
-16.14
-15.83
-15.35
-13.62
-10.15
-5.43
-0.85
2.12
2.78
1.51
-0.45
-1.93
-2.41
-2.40
-2.92
-4.90
-8.52
-13.11
-17.59
-20.86
-22.30
-21.74
-19.29
-15.14
-9.50
-2.84
4.09
10.14
14.21
15.55
14.16
10.73
6.22
1.49
-3.16
-7.86
-12.77
-17.68
-21.83
-24.21
-24.16
-21.94
-18.73
-16.16
-15.48
-16.94
-19.66
-22.07
-22.71
-20.82
-16.67
-11.22
-5.59
-0.45
4.04
8.04
11.53
13.96
14.45
12.22
7.32
0.83
-5.33
-9.17
-9.60
-6.83
-2.31
2.09
4.95
5.87
5.37
4.40
3.87
4.27
5.73
8.11
11.24
14.80
18.25
20.75
21.34
19.39
15.00
9.27
3.96
0.82
0.80
3.69
8.32
13.13
16.98
19.51
21.01
21.87
22.19
21.76
20.51
19.06
18.74
21.15
27.04
35.71
44.94
51.91
54.50
52.24
46.45
39.30
32.59
26.65
20.24
11.36
-1.57
-18.86
-39.35
-60.95
-81.28
-98.03
-109.11
-112.72
-107.80
-94.85
-76.47
-57.22
-42.23
-35.27
-36.98
-44.54
-53.03
-57.82
-56.73
-50.69
-42.67
-35.62
-30.89
-27.79
-24.59
-19.93
-13.65
-6.60
0.48
7.75
16.33
27.22
39.93
52.01
59.65
59.60
50.68
34.52
14.60
-5.37
-22.86
-36.99
-47.87
-55.72
-60.22
-60.89
-57.57
-50.92
-42.19
-32.65
-23.05
-13.61
-4.48
3.87
10.38
13.99
14.19
11.58
7.69
4.26
2.60
3.00
4.86
7.03
8.52
8.98
8.85
9.15
10.83
14.21
18.65
22.84
25.39
25.53
23.54
20.27
16.63
12.84
8.53
3.43
-1.79
-5.40
-5.47
-1.29
5.63
12.17
15.37
14.56
12.03
11.75
16.68
26.55
37.60
44.65
44.29
36.83
26.04
16.71
11.74
10.73
10.88
9.20
4.52
-1.87
-7.44
-10.16
-9.64
-7.21
-4.74
-3.37
-3.02
-2.77
-1.77
0.01
1.77
2.48
1.48
-1.03
-4.35
-7.65
-10.39
-12.34
-13.41
-13.54
-12.66
-10.93
-8.70
-6.44
-4.42
-2.61
-0.68
1.71
4.59
7.59
10.01
11.18
10.54
7.78
2.85
-3.86
-11.56
-19.08
-25.19
-29.14
-30.83
-30.83
-29.89
-28.44
-26.46
-23.66
-20.01
-16.01
-12.59
-10.49
-9.81
-9.91
-9.76
-8.66
-6.70
-4.76
-3.80
-4.28
-5.72
-6.90
-6.41
-3.27
2.71
11.14
21.32
32.71
44.96
57.74
70.47
82.05
91.23
97.10
99.77
100.39
100.46
100.42
98.71
91.81
75.60
47.69
8.97
-36.06
-80.86
-119.23
-147.10
-163.01
-167.30
-161.06
-145.76
-123.51
-97.52
-71.84
-50.31
-35.11
-26.23
-21.95
-20.11
-19.09
-18.26
-17.48
-16.54
-15.14
-13.27
-11.76
-12.08
-15.66
-22.79
-32.21
-41.52
-48.21
-50.71
-48.88
-43.78
-36.98
-29.94
-23.72
-19.03
-16.41
-16.24
-18.68
-23.59
-30.63
-39.37
-49.32
-59.88
-70.22
-79.36
-86.32
-90.42
-91.35
-88.94
-82.83
-72.18
-55.90
-33.01
-3.21
32.89
73.77
117.09
159.79
198.01
227.60
244.91
248.11
238.03
218.21
193.62
168.92
146.81
127.71
110.52
93.94
77.52
61.78
47.56
35.23
24.25
13.57
2.22
-9.99
-22.37
-33.70
-42.84
-49.36
-53.56
-56.37
-58.96
-62.56
-68.41
-77.68
-90.97
-107.73
-125.80
-141.72
-151.78
-153.22
-145.26
-128.84
-105.91
-78.40
-47.77
-15.48
16.44
45.05
67.27
81.05
86.54
86.01
82.80
79.74
78.06
77.35
76.36
74.18
70.82
67.11
64.10
62.19
60.80
58.65
54.53
48.13
40.39
33.12
28.08
26.11
26.53
27.63
27.43
24.72
19.67
13.62
8.45
5.50
5.27
7.27
10.57
14.24
17.61
20.24
21.75
21.87
20.43
17.65
14.07
10.63
8.09
6.69
5.86
4.29
0.54
-6.34
-16.06
-26.93
-36.14
-40.81
-39.06
-30.91
-18.49
-5.25
5.35
11.24
12.29
9.99
6.41
3.04
0.39
-1.75
-3.57
-4.78
-4.80
-3.41
-1.40
-0.27
-1.37
-4.79
-9.06
-11.85
-11.32
-7.29
-1.32
4.15
7.12
6.88
4.09
0.21
-3.25
-5.19
-4.97
-2.56
1.39
5.55
8.22
8.08
4.89
-0.24
-5.40
-8.85
-9.88
-9.08
-7.74
-7.13
-7.72
-9.25
-11.05
-12.50
-13.34
-13.57
-13.43
-13.17
-13.10
-13.40
-14.01
-14.54
-14.35
-12.95
-10.34
-7.15
-4.14
-1.82
-0.06
1.70
3.81
6.08
7.60
7.55
5.74
3.01
0.70
-0.25
0.06
0.56
0.09
-1.79
-4.30
-6.17
-6.51
-5.60
-4.62
-4.90
-6.88
-9.68
-11.55
-10.76
-6.58
0.46
8.86
16.72
22.55
25.47
25.40
22.82
18.58
13.47
8.13
3.10
-1.30
-4.67
-6.74
-7.39
-6.80
-5.53
-4.20
-3.30
-2.82
-2.46
-1.74
-0.52
0.92
1.95
2.03
0.98
-0.96
-3.31
-5.77
-8.21
-10.64
-12.86
-14.26
-13.93
-10.97
-4.95
4.01
15.19
27.65
40.29
52.06
61.94
69.12
73.25
74.57
73.93
72.29
70.38
68.29
65.65
61.92
56.71
49.76
40.59
28.37
12.08
-8.73
-33.18
-58.75
-81.81
-98.79
-107.43
-107.43
-100.29
-88.57
-74.85
-61.00
-48.04
-36.23
-25.64
-16.38
-8.89
-3.77
-1.48
-1.92
-4.19
-6.82
-8.22
-7.35
-4.11
0.61
5.45
9.21
11.18
11.49
10.68
9.48
8.50
8.28
9.49
12.87
18.82
26.77
34.88
40.40
41.06
36.31
28.01
19.64
14.58
14.20
17.23
20.68
21.76
19.63
15.57
11.91
10.30
10.68
11.69
11.86
10.71
8.83
7.20
6.26
5.47
3.83
0.58
-4.05
-8.99
-12.83
-14.53
-13.88
-11.31
-7.71
-3.95
-0.87
0.84
0.58
-1.85
-6.05
-10.97
-15.15
-17.36
-17.17
-15.20
-12.90
-11.76
-12.56
-15.00
-17.91
-19.94
-20.32
-19.11
-17.09
-15.09
-13.60
-12.71
-12.22
-12.05
-12.19
-12.62
-12.98
-12.77
-11.50
-9.30
-6.96
-5.63
-6.17
-8.49
-11.54
-13.83
-14.40
-13.37
-11.93
-11.57
-12.94
-15.52
-17.83
-18.50
-17.10
-14.45
-12.01
-10.95
-11.55
-13.19
-15.03
-16.52
-17.46
-17.35
-14.75
-7.32
7.14
29.03
55.85
82.31
102.18
110.59
105.81
89.50
65.41
37.56
8.86
-18.89
-44.31
-65.65
-80.84
-88.56
-89.01
-84.20
-76.85
-69.07
-61.38
-53.02
-43.05
-31.50
-19.67
-9.41
-2.00
2.49
5.10
7.12
9.34
11.71
13.80
15.17
15.84
16.15
16.57
17.34
18.45
19.64
20.58
21.10
21.24
21.48
22.52
24.84
28.12
30.75
30.12
23.55
9.60
-11.05
-35.69
-60.76
-83.16
-101.07
-113.81
-120.94
-121.83
-116.06
-104.63
-90.65
-78.73
-72.73
-73.15
-75.89
-73.48
-58.76
-28.81
12.84
57.22
93.85
115.27
119.98
112.04
98.26
84.34
72.57
61.97
50.32
36.67
22.32
10.17
2.69
0.41
1.75
4.31
6.72
9.46
14.45
23.32
35.95
49.96
61.69
67.85
67.02
60.18
50.06
39.86
31.85
26.78
23.96
22.01
19.72
16.56
12.80
9.00
5.75
3.17
1.04
-0.93
-2.86
-4.57
-5.72
-6.01
-5.43
-4.15
-2.49
-0.69
1.21
3.27
5.57
8.01
10.29
11.99
12.82
12.75
12.02
11.01
9.99
9.13
8.56
8.51
9.36
11.45
14.74
18.67
22.29
24.57
24.99
23.71
21.63
19.96
19.76
21.56
25.26
30.34
36.11
42.14
48.24
54.37
60.29
65.31
68.40
68.62
65.76
60.61
54.85
50.14
47.12
44.65
40.24
31.20
16.19
-3.72
-25.32
-44.70
-59.04
-67.84
-72.58
-75.38
-77.32
-77.93
-75.97
-71.06
-64.80
-60.22
-59.90
-63.86
-69.02
-70.82
-66.12
-55.41
-42.87
-33.95
-32.02
-36.39
-42.72
-45.78
-42.54
-33.74
-22.95
-14.11
-9.20
-7.47
-6.66
-4.82
-1.68
1.41
2.81
1.75
-1.09
-4.21
-6.26
-6.90
-6.79
-6.96
-8.13
-10.31
-12.96
-15.41
-17.21
-18.36
-19.12
-19.79
-20.51
-21.00
-20.46
-18.01
-12.98
-5.55
3.30
12.20
19.98
25.88
29.34
29.50
24.89
14.03
-3.50
-26.09
-50.05
-70.84
-84.91
-91.11
-90.76
-86.47
-80.35
-73.00
-63.64
-51.42
-36.64
-21.11
-7.45
2.26
7.53
9.63
10.71
12.60
15.87
19.71
22.72
23.72
22.53
19.91
17.33
16.14
17.06
19.93
23.76
27.35
29.82
31.42
33.60
38.68
48.59
63.50
80.95
96.43
105.03
103.73
92.82
75.68
57.09
41.01
29.05
20.63
14.21
8.86
4.74
2.53
2.18
2.29
0.66
-4.44
-12.99
-23.19
-32.43
-38.77
-41.82
-42.62
-42.63
-42.62
-42.39
-40.99
-37.65
-32.36
-25.93
-19.46
-13.80
-9.15
-5.27
-1.76
1.56
4.52
6.81
8.18
8.59
8.16
7.09
5.52
3.50
1.11
-1.50
-4.01
-5.93
-6.77
-6.21
-4.30
-1.49
1.38
3.45
4.21
3.73
2.70
1.89
1.72
1.88
1.59
0.10
-2.66
-6.01
-9.04
-11.21
-12.74
-14.27
-16.30
-18.65
-20.57
-21.32
-20.68
-19.10
-17.24
-15.39
-13.25
-10.25
-6.14
-1.30
3.41
7.13
9.44
10.34
9.99
8.47
5.88
2.64
-0.23
-1.39
0.29
5.10
12.28
20.54
28.73
36.60
44.69
54.00
65.20
78.15
91.77
104.33
113.83
118.58
117.78
111.75
101.93
90.39
79.18
69.74
62.78
58.53
57.15
58.73
62.93
68.58
73.65
75.89
73.85
67.62
58.60
48.48
37.89
25.56
8.75
-15.29
-47.56
-86.12
-126.42
-162.77
-190.47
-207.09
-212.67
-208.50
-196.03
-176.21
-150.05
-119.53
-88.17
-60.33
-39.56
-27.17
-21.66
-19.72
-18.02
-14.71
-9.85
-4.66
-0.64
1.15
0.14
-3.73
-10.04
-17.67
-24.70
-29.07
-29.57
-26.70
-22.70
-20.50
-22.17
-27.62
-34.71
-40.08
-40.94
-36.21
-27.05
-16.13
-6.43
-0.11
2.24
1.51
-0.46
-1.95
-1.98
-0.76
0.72
1.40
0.83
-0.43
-1.24
-0.73
0.92
2.41
2.04
-1.27
-7.09
-13.76
-19.10
-21.74
-21.67
-20.12
-18.64
-18.14
-18.62
-19.35
-19.69
-19.46
-18.91
-18.30
-17.52
-16.10
-13.59
-10.17
-6.57
-3.81
-2.61
-3.01
-4.63
-7.11
-10.51
-15.17
-21.33
-28.60
-35.96
-42.21
-46.65
-49.52
-51.87
-54.87
-59.02
-63.49
-66.19
-64.66
-57.32
-44.63
-29.34
-15.48
-6.62
-3.99
-5.77
-7.88
-6.14
1.49
13.98
27.88
39.40
46.37
49.01
49.29
49.44
50.78
53.32
56.35
59.07
61.10
62.42
63.24
63.74
64.04
64.32
64.59
64.59
63.66
61.03
56.30
49.85
42.71
36.11
30.86
26.97
24.00
21.49
19.52
18.62
19.35
21.65
24.67
27.17
28.10
27.30
25.51
23.85
23.15
23.33
23.55
22.77
20.45
16.91
13.18
10.32
8.79
8.23
7.68
6.28
3.68
0.34
-2.81
-4.78
-4.96
-3.30
-0.21
3.59
7.34
10.39
12.26
12.74
11.90
10.08
7.70
5.12
2.44
-0.30
-3.02
-5.41
-7.07
-7.72
-7.46
-6.84
-6.63
-7.47
-9.56
-12.74
-16.65
-21.04
-25.91
-31.37
-37.44
-43.82
-49.94
-55.15
-59.00
-61.33
-62.37
-62.46
-61.96
-61.12
-59.97
-58.45
-56.46
-53.89
-50.58
-46.29
-40.59
-32.91
-22.68
-9.59
6.11
23.48
40.98
56.65
68.60
75.44
76.72
72.94
65.39
55.62
44.94
34.08
23.29
12.77
2.97
-5.22
-10.88
-13.44
-13.13
-10.80
-7.42
-3.62
0.58
5.41
10.86
16.34
20.93
23.89
25.24
25.91
27.17
29.92
33.99
38.09
40.30
39.05
33.78
25.21
14.89
4.34
-5.66
-15.23
-24.89
-34.78
-44.11
-51.17
-54.16
-52.12
-45.48
-35.78
-24.92
-14.09
-3.43
7.70
19.87
32.94
46.01
57.64
66.15
69.38
64.75
49.91
24.19
-9.58
-44.76
-72.50
-85.29
-80.36
-61.08
-35.36
-11.70
4.63
13.46
18.38
23.74
31.64
40.98
48.66
51.88
49.95
44.55
38.79
35.34
35.31
37.73
40.42
41.04
38.29
32.57
25.60
19.62
16.27
15.91
17.61
19.60
20.24
18.65
15.12
10.90
7.67
6.84
8.87
13.11
17.91
21.47
22.41
20.44
16.29
11.19
6.29
2.13
-1.21
-3.96
-6.13
-7.67
-8.73
-10.39
-15.07
-25.99
-45.77
-74.34
-107.76
-138.72
-159.09
-163.43
-151.38
-127.54
-98.70
-70.45
-44.99
-21.82
-0.33
17.89
29.00
29.55
19.52
3.88
-9.37
-13.12
-4.87
12.18
31.25
45.60
51.90
51.01
46.95
44.16
45.37
50.42
56.73
60.71
59.55
52.93
43.42
35.15
31.41
32.40
34.47
31.64
18.63
-6.41
-40.66
-77.93
-111.09
-134.44
-144.94
-142.00
-127.02
-102.99
-74.67
-48.17
-29.63
-23.13
-28.56
-41.32
-53.87
-58.47
-50.21
-28.53
2.85
37.51
68.77
92.08
106.10
112.49
114.21
113.17
108.76
98.51
80.56
56.23
31.13
12.90
7.15
13.71
26.49
36.70
38.24
31.13
20.59
12.66
8.80
3.90
-11.12
-43.41
-92.69
-149.99
-201.34
-234.30
-243.51
-232.29
-209.54
-184.39
-162.14
-143.48
-126.96
-111.96
-100.12
-93.71
-92.83
-93.66
-89.53
-74.75
-48.19
-14.58
18.04
42.58
57.06
65.01
72.78
85.45
103.44
122.42
135.57
137.27
125.81
104.27
79.18
57.82
45.36
42.89
47.41
53.40
55.37
50.13
37.96
21.85
5.57
-7.99
-18.09
-25.64
-31.96
-37.70
-42.15
-43.90
-41.93
-36.56
-29.66
-24.14
-22.66
-26.34
-34.08
-42.40
-46.36
-41.11
-23.46
7.11
48.16
94.98
141.82
183.06
214.24
232.50
236.74
227.50
206.68
177.23
142.70
106.81
72.87
43.64
21.08
6.29
-0.58
-0.49
4.47
11.65
18.80
25.23
32.08
41.41
54.53
70.37
85.42
95.27
97.19
91.78
82.34
72.64
64.15
54.97
41.15
19.77
-8.27
-37.75
-61.13
-72.25
-69.40
-56.14
-39.56
-26.87
-22.60
-27.18
-37.51
-48.85
-56.81
-58.54
-53.16
-41.71
-26.62
-11.17
1.21
7.74
7.26
0.83
-8.39
-16.07
-18.06
-11.50
4.41
28.48
58.06
89.75
120.25
147.02
168.59
184.31
193.76
196.27
190.99
177.63
157.51
133.99
111.46
93.49
80.86
70.97
58.94
39.99
11.63
-25.72
-69.24
-114.94
-158.16
-193.85
-216.79
-222.98
-211.65
-186.66
-155.91
-128.20
-109.37
-99.80
-95.19
-90.03
-81.40
-70.77
-62.43
-60.29
-64.78
-72.67
-79.00
-80.13
-75.47
-67.16
-58.38
-51.53
-47.45
-45.76
-45.77
-47.00
-49.17
-51.73
-53.78
-54.47
-53.52
-51.40
-48.92
-46.61
-44.18
-40.67
-35.19
-27.58
-18.75
-10.28
-3.72
0.18
1.72
2.04
2.42
3.54
5.34
7.06
7.84
7.23
5.54
3.64
2.57
2.72
3.35
2.83
-0.53
-7.26
-16.11
-24.26
-28.49
-26.57
-18.41
-5.90
8.11
21.19
32.37
42.07
50.93
58.29
61.56
57.35
43.91
23.37
2.01
-11.99
-12.49
1.34
24.52
48.80
66.86
75.54
76.22
72.45
66.81
59.13
47.34
29.97
8.33
-13.37
-30.11
-38.82
-40.14
-37.60
-35.38
-35.57
-36.97
-36.27
-30.53
-19.48
-6.11
4.97
10.28
9.50
5.50
2.37
2.67
5.74
8.07
5.59
-3.73
-18.60
-35.05
-48.72
-56.93
-59.58
-58.15
-53.78
-45.82
-31.78
-9.17
22.18
58.54
92.93
117.48
126.47
118.61
97.13
68.25
38.58
13.19
-5.36
-16.60
-21.37
-21.09
-17.54
-12.79
-8.96
-7.60
-9.00
-11.99
-14.44
-14.42
-11.29
-5.86
0.09
5.01
8.28
10.14
10.94
10.47
7.93
2.71
-4.50
-11.72
-16.50
-17.52
-15.64
-13.49
-13.96
-18.26
-25.05
-31.13
-33.52
-31.30
-26.27
-21.80
-20.65
-23.14
-26.95
-28.59
-25.69
-18.72
-10.78
-5.85
-6.55
-12.58
-21.11
-28.59
-32.81
-33.88
-33.73
-34.37
-36.39
-38.63
-38.96
-35.85
-29.26
-20.72
-12.41
-6.13
-2.49
-1.01
-0.58
-0.08
0.98
2.34
3.13
2.44
-0.10
-3.81
-7.05
-7.97
-5.43
0.53
8.86
18.42
28.76
40.23
53.19
67.00
79.57
88.09
90.40
86.28
77.68
67.59
58.48
51.15
44.98
38.89
32.75
27.71
25.59
27.68
33.67
41.78
49.59
55.41
59.08
62.03
66.18
72.70
81.39
90.62
98.46
103.65
106.41
108.18
110.85
115.82
123.09
131.12
137.05
137.53
129.61
111.70
84.05
48.66
8.66
-32.92
-73.99
-114.05
-154.13
-196.41
-243.34
-296.55
-355.61
-417.04
-474.33
-519.16
-544.01
-544.70
-522.01
-481.29
-430.22
-376.06
-323.56
-274.53
-228.79
-185.57
-144.25
-104.24
-64.50
-23.36
20.68
67.83
116.07
161.39
198.92
224.61
236.75
236.21
225.92
209.33
189.15
166.67
142.11
115.51
87.61
60.29
36.01
16.95
4.15
-2.67
-4.77
-3.53
0.17
6.04
14.03
23.82
34.67
45.59
55.88
65.30
73.98
82.24
90.06
97.33
103.82
109.34
113.32
114.15
108.86
93.63
65.74
25.73
-20.92
-64.35
-92.90
-97.37
-74.97
-31.09
22.23
70.72
103.04
114.65
108.18
90.86
70.59
52.58
38.54
27.69
19.03
12.50
9.10
9.53
13.05
17.44
19.95
18.93
14.55
8.56
2.94
-1.11
-3.83
-6.50
-10.42
-16.12
-22.72
-28.44
-31.48
-31.08
-27.88
-23.57
-19.58
-15.89
-10.74
-1.37
14.09
35.00
57.67
76.75
87.71
89.01
82.83
73.59
65.71
61.36
59.98
59.32
57.08
51.99
43.66
31.93
16.06
-4.80
-30.69
-59.71
-87.90
-110.28
-122.59
-122.91
-112.24
-94.01
-72.69
-52.23
-35.04
-21.64
-11.21
-2.41
5.70
13.22
19.51
23.60
24.92
23.63
20.53
16.69
13.08
10.36
9.00
9.25
11.09
14.06
17.17
19.25
19.26
16.75
12.05
6.12
0.29
-4.11
-6.07
-5.04
-0.83
6.47
16.70
29.53
44.29
59.79
74.53
87.36
97.93
107.00
115.70
124.50
132.36
136.84
135.38
127.00
113.27
97.74
84.17
74.63
68.57
63.67
57.52
49.38
40.67
34.12
32.33
36.40
45.48
57.04
67.78
74.26
73.46
62.99
41.29
8.25
-34.03
-80.75
-124.95
-159.04
-177.42
-178.64
-166.01
-146.12
-125.87
-109.62
-97.95
-88.72
-79.44
-69.34
-59.78
-52.95
-49.87
-49.24
-47.99
-42.98
-32.95
-19.16
-4.85
6.41
12.19
11.92
6.85
-0.83
-8.77
-15.06
-18.68
-19.58
-18.52
-16.53
-14.54
-12.90
-11.45
-9.84
-7.87
-5.61
-3.26
-0.93
1.45
3.72
5.41
5.63
3.56
-0.91
-6.89
-12.73
-16.74
-17.98
-16.59
-13.44
-9.49
-5.40
-1.51
1.86
4.25
5.17
4.58
3.08
1.75
1.55
2.83
5.16
7.62
9.33
9.72
8.62
5.99
1.94
-3.16
-8.48
-12.68
-14.44
-13.06
-9.14
-4.42
-1.16
-1.04
-4.46
-10.50
-17.40
-23.56
-28.00
-30.51
-31.24
-30.35
-27.97
-24.30
-19.97
-15.90
-12.87
-10.95
-9.47
-7.33
-3.86
0.54
4.59
6.78
6.53
4.47
2.22
1.18
1.64
2.56
2.19
-0.58
-5.58
-11.35
-16.12
-18.85
-19.68
-19.49
-19.01
-18.27
-16.54
-13.22
-8.49
-3.53
0.03
1.15
0.00
-2.15
-3.83
-4.34
-4.22
-4.73
-6.96
-10.95
-15.63
-19.54
-21.63
-21.89
-21.03
-19.94
-18.96
-17.79
-15.96
-13.34
-10.54
-8.58
-8.32
-9.89
-12.71
-15.88
-18.67
-20.91
-22.81
-24.79
-27.29
-30.66
-35.16
-40.89
-47.46
-53.94
-59.25
-62.41
-63.30
-62.55
-61.18
-59.93
-59.01
-58.09
-56.67
-54.32
-50.43
-43.99
-33.48
-17.45
4.62
31.76
61.44
90.26
114.93
133.04
143.38
145.94
141.82
133.16
122.68
112.66
103.60
93.52
78.45
54.45
20.29
-20.82
-61.55
-92.83
-107.44
-102.92
-82.26
-52.41
-21.27
5.17
24.41
36.92
44.62
49.11
50.85
49.61
45.48
39.76
34.84
33.00
34.83
38.45
40.11
36.16
25.15
8.90
-8.09
-20.90
-26.51
-25.05
-19.23
-12.48
-7.11
-3.48
-0.52
2.96
7.14
11.12
13.61
13.82
11.98
9.08
6.39
4.74
4.44
5.31
6.85
8.42
9.40
9.42
8.42
6.86
5.40
4.68
4.95
6.08
7.77
9.67
11.49
12.80
13.04
11.61
8.32
3.65
-1.25
-5.11
-7.13
-7.33
-6.34
-4.85
-3.21
-1.32
1.04
3.78
6.47
8.57
9.81
10.39
10.87
11.68
12.96
14.54
16.13
17.77
19.82
22.70
26.53
30.81
34.39
35.98
34.76
30.89
25.78
21.67
20.85
24.71
33.24
45.18
58.56
71.25
80.94
85.11
81.32
68.25
47.16
22.81
2.45
-7.06
-2.71
12.51
30.70
42.57
42.06
28.93
8.20
-13.13
-29.74
-39.92
-45.01
-47.09
-47.42
-46.08
-43.21
-40.13
-39.39
-43.18
-51.41
-60.95
-66.84
-65.01
-55.06
-40.90
-29.29
-26.30
-34.09
-49.60
-66.15
-76.68
-77.30
-68.96
-56.72
-47.36
-46.52
-57.10
-78.91
-109.29
-143.69
-176.27
-200.56
-210.68
-203.27
-179.05
-143.27
-104.15
-69.87
-45.29
-30.24
-20.18
-8.70
9.05
34.18
63.67
92.05
114.03
126.67
130.25
127.34
121.18
113.97
106.31
97.79
88.07
77.71
67.89
59.74
53.45
48.18
42.69
36.38
29.72
24.03
20.66
20.13
22.00
25.19
28.64
31.61
33.68
34.52
33.81
31.45
27.85
23.96
20.94
19.58
19.90
21.16
22.55
23.62
24.73
26.65
29.99
34.81
40.39
45.77
50.21
53.51
55.79
57.15
57.42
56.29
53.70
50.22
47.06
45.34
45.57
47.21
48.83
48.72
45.39
38.10
26.87
12.69
-2.58
-16.45
-26.33
-30.50
-28.83
-23.03
-15.98
-10.42
-7.79
-8.00
-9.90
-12.35
-14.85
-17.45
-20.26
-22.87
-24.58
-24.86
-23.92
-22.51
-21.51
-21.19
-20.92
-19.73
-16.95
-12.82
-8.44
-5.07
-3.52
-3.71
-4.94
-6.24
-6.98
-6.90
-6.09
-4.84
-3.43
-2.15
-1.23
-0.73
-0.44
0.10
1.36
3.64
6.88
10.83
15.26
20.19
25.82
32.07
38.25
42.93
44.23
40.67
31.92
19.03
4.17
-10.29
-22.61
-32.15
-39.46
-46.00
-53.90
-65.60
-83.27
-107.80
-137.79
-169.03
-194.94
-208.29
-203.53
-179.06
-138.25
-88.78
-40.18
-0.71
25.14
37.54
40.00
37.07
32.19
26.83
21.22
15.75
11.78
11.20
15.15
22.64
30.76
35.92
36.05
31.69
25.50
20.52
18.35
18.49
18.98
17.86
14.21
8.45
1.80
-4.45
-9.32
-12.20
-12.64
-10.48
-6.06
-0.41
5.06
9.13
11.36
12.34
13.23
15.02
17.81
20.82
22.82
23.00
21.40
18.88
16.61
15.37
15.32
16.10
17.18
18.16
18.76
18.61
17.15
13.87
8.63
2.06
-4.59
-10.02
-13.44
-15.04
-15.62
-16.05
-16.79
-17.88
-19.26
-21.17
-24.08
-28.16
-32.77
-36.43
-37.54
-35.29
-30.40
-24.90
-21.20
-21.01
-24.64
-31.19
-39.17
-47.27
-54.66
-61.06
-66.39
-70.62
-73.84
-76.22
-78.16
-80.08
-82.32
-84.88
-87.27
-88.52
-87.14
-81.60
-70.77
-54.72
-35.01
-14.56
3.32
16.11
22.88
24.53
23.06
20.70
19.12
19.20
21.08
24.46
28.77
33.25
37.12
39.76
41.02
41.28
41.36
42.36
45.36
51.26
60.35
72.15
85.03
96.36
103.19
103.28
96.37
84.53
71.70
62.27
59.51
64.42
75.48
89.26
101.48
108.08
106.28
95.55
78.17
58.80
43.00
35.10
36.32
44.25
54.09
60.94
62.01
57.38
49.16
39.84
30.88
22.63
14.96
8.32
3.76
2.32
3.92
6.96
8.80
6.87
-0.13
-11.82
-26.38
-41.27
-54.18
-63.79
-70.04
-74.21
-78.68
-86.39
-99.84
-120.05
-145.61
-172.77
-196.42
-211.83
-216.12
-208.77
-190.82
-163.49
-127.11
-81.59
-27.90
30.38
86.73
133.41
164.29
177.37
175.55
165.16
153.01
143.72
138.36
134.66
128.45
115.36
92.41
59.47
20.05
-18.85
-48.38
-60.95
-53.40
-28.61
5.44
38.96
64.24
78.08
81.59
77.92
69.77
58.19
43.54
27.05
11.75
1.71
-0.15
6.09
17.07
27.69
33.71
33.71
29.54
25.03
23.83
27.43
34.43
41.17
43.48
38.44
25.60
6.99
-13.89
-33.29
-48.34
-57.45
-60.11
-56.80
-48.84
-38.15
-26.86
-16.58
-7.58
1.08
10.62
20.99
29.95
33.89
29.98
18.59
3.94
-7.70
-11.70
-8.18
-2.90
-5.23
-23.71
-61.78
-115.55
-174.64
-225.48
-255.71
-258.26
-233.63
-190.15
-141.32
-101.72
-82.21
-86.32
-109.52
-141.47
-170.18
-186.20
-185.03
-166.66
-133.64
-89.10
-36.26
20.59
75.22
119.84
147.74
156.65
150.56
138.31
129.61
130.32
139.89
152.49
161.31
162.82
158.54
153.37
152.01
156.18
164.46
173.99
182.81
190.40
196.34
198.53
192.49
173.31
138.81
91.89
40.19
-6.86
-41.97
-62.87
-72.57
-77.88
-86.71
-105.49
-137.11
-179.78
-226.76
-267.81
-292.02
-291.32
-263.31
-212.17
-147.07
-78.96
-17.35
31.98
67.44
91.06
107.30
121.17
136.69
154.90
173.36
186.85
189.30
176.14
146.08
101.91
49.85
-1.88
-45.35
-75.28
-91.04
-97.22
-101.88
-112.77
-133.03
-159.35
-183.49
-197.09
-196.51
-184.63
-168.43
-153.97
-142.18
-128.13
-104.65
-67.13
-17.11
38.11
88.95
128.07
153.86
170.60
185.84
206.34
234.56
267.12
296.09
312.52
310.39
289.43
254.89
214.55
174.53
136.68
98.73
57.24
11.13
-36.62
-79.87
-112.16
-129.62
-132.48
-124.27
-110.14
-94.70
-80.75
-69.35
-60.69
-55.38
-55.28
-63.20
-81.89
-112.23
-152.08
-195.96
-236.22
-265.14
-277.34
-270.91
-247.03
-209.07
-162.00
-111.88
-65.39
-28.62
-4.82
7.42
14.28
24.39
44.34
74.67
108.84
136.62
149.93
148.13
138.71
132.75
137.94
153.16
168.31
169.61
147.45
102.12
44.34
-9.87
-47.14
-62.69
-61.26
-52.92
-46.69
-45.87
-47.55
-45.51
-34.91
-15.31
9.10
31.67
46.46
50.77
45.79
35.78
26.18
21.32
22.53
27.41
30.74
27.32
15.19
-2.68
-19.37
-27.87
-25.01
-13.53
-0.44
6.89
4.50
-6.82
-23.25
-40.75
-57.00
-71.56
-84.66
-96.18
-105.60
-112.70
-118.04
-122.73
-127.84
-134.21
-142.63
-154.07
-169.32
-187.74
-206.17
-218.88
-219.37
-203.07
-169.47
-122.16
-66.74
-8.38
49.46
104.01
151.66
187.28
206.05
206.60
193.17
174.69
160.65
156.14
159.08
161.51
154.29
132.33
97.09
55.22
15.10
-16.84
-37.46
-46.31
-44.39
-33.47
-16.42
2.69
19.36
30.40
35.23
36.06
36.34
38.46
42.56
47.08
50.30
51.70
52.10
52.48
52.90
52.36
49.70
44.77
38.85
34.23
32.90
35.37
40.14
44.26
44.52
38.62
26.35
9.50
-8.54
-24.01
-34.31
-38.91
-39.51
-38.93
-39.55
-41.90
-44.69
-45.82
-44.04
-40.05
-36.22
-35.10
-37.66
-42.61
-46.73
-46.97
-42.44
-35.24
-29.41
-28.58
-33.77
-42.65
-51.15
-56.13
-57.41
-57.79
-61.15
-70.15
-84.80
-102.86
-120.90
-135.54
-143.41
-140.81
-123.91
-90.56
-42.94
10.91
58.16
85.83
86.52
62.42
25.11
-8.83
-24.25
-13.45
21.53
70.31
119.03
156.09
176.45
182.54
181.37
180.01
181.51
183.71
181.18
169.27
147.51
120.39
95.01
77.09
68.09
64.84
62.00
55.28
43.67
29.39
16.09
6.93
2.91
2.67
3.30
1.60
-4.50
-15.17
-28.45
-41.17
-50.24
-54.15
-53.55
-50.86
-48.83
-48.99
-50.81
-52.05
-50.29
-44.43
-35.74
-27.20
-22.01
-21.75
-25.56
-30.69
-34.16
-34.55
-32.56
-30.29
-29.45
-30.00
-30.04
-27.24
-20.73
-12.04
-4.36
-0.57
-1.31
-4.45
-6.30
-4.01
2.73
11.43
18.27
20.23
16.66
9.34
1.31
-4.68
-7.26
-6.50
-3.18
1.97
8.47
15.90
23.34
29.16
31.55
29.18
22.03
11.65
0.58
-8.59
-14.24
-16.21
-15.63
-14.10
-13.01
-12.99
-13.93
-15.23
-16.16
-16.04
-14.42
-11.38
-7.71
-5.05
-5.52
-10.69
-20.66
-33.65
-46.49
-56.06
-60.88
-62.06
-63.14
-68.92
-83.92
-110.99
-150.36
-199.28
-252.06
-300.95
-337.70
-355.66
-351.69
-327.14
-287.20
-238.86
-188.47
-139.99
-94.54
-51.33
-9.27
31.63
69.78
102.40
126.80
141.29
145.94
142.47
133.71
122.66
111.72
102.16
94.16
87.22
80.60
73.92
67.43
61.95
58.48
57.50
58.62
60.56
61.80
61.31
59.31
57.02
55.94
56.97
60.01
64.30
69.12
74.42
80.67
88.11
96.02
102.57
105.73
104.63
100.64
96.97
97.06
102.46
111.51
119.55
120.79
110.71
87.64
53.17
11.40
-31.95
-70.39
-97.51
-108.21
-100.60
-77.27
-45.41
-14.52
7.14
15.70
12.80
3.87
-5.08
-10.37
-11.47
-9.97
-7.66
-5.25
-2.60
0.26
2.33
1.70
-3.49
-13.71
-27.79
-43.43
-58.37
-71.59
-83.44
-95.06
-107.17
-119.29
-129.66
-136.06
-136.64
-130.54
-117.85
-99.22
-75.52
-47.73
-17.31
13.62
42.33
66.00
82.47
90.80
91.69
87.24
80.42
74.20
70.68
70.54
73.24
77.45
81.71
85.04
86.92
86.91
84.66
80.02
73.52
66.57
61.06
58.41
58.76
60.71
62.04
60.97
56.99
51.06
45.20
41.77
43.03
50.76
65.78
87.27
112.33
136.23
153.77
161.36
158.51
148.01
134.43
121.69
111.19
101.47
89.33
71.82
47.82
18.73
-12.05
-40.31
-62.43
-76.47
-82.59
-82.96
-80.63
-78.32
-77.36
-77.46
-77.32
-75.89
-73.14
-69.98
-67.38
-65.41
-63.01
-58.79
-52.14
-43.95
-36.46
-31.88
-31.26
-33.84
-37.50
-39.79
-39.11
-35.08
-28.48
-20.62
-12.90
-6.51
-2.30
-0.67
-1.31
-3.25
-5.08
-5.61
-4.46
-2.30
-0.57
-0.72
-3.51
-8.51
-14.48
-19.88
-23.66
-25.60
-26.26
-26.54
-27.15
-28.27
-29.49
-30.06
-29.31
-26.95
-23.31
-19.24
-15.86
-14.16
-14.62
-16.94
-20.13
-22.85
-23.85
-22.59
-19.26
-14.65
-9.64
-4.74
-0.02
4.66
9.13
12.79
14.76
14.45
12.10
8.77
5.94
4.66
5.03
6.16
6.82
6.19
4.42
2.49
1.70
3.09
6.91
12.76
19.81
27.13
33.85
39.29
43.00
44.81
44.98
44.00
42.55
41.21
40.25
39.40
37.79
33.99
26.28
13.23
-5.59
-29.01
-54.38
-78.41
-98.54
-113.78
-124.62
-132.03
-136.05
-135.45
-128.23
-113.27
-91.62
-66.66
-42.91
-24.26
-12.54
-7.22
-6.31
-7.54
-9.37
-11.28
-13.44
-16.24
-19.70
-23.23
-25.64
-25.60
-22.41
-16.45
-9.31
-3.00
0.97
2.32
1.95
1.29
1.18
1.52
1.46
0.15
-2.45
-5.55
-7.76
-7.88
-5.41
-0.71
5.17
10.95
15.41
17.82
18.02
16.48
13.97
11.26
8.90
7.12
6.05
5.69
5.98
6.64
7.12
6.82
5.39
3.13
0.93
-0.08
0.89
3.90
8.26
13.08
17.72
22.11
26.56
31.36
36.44
41.36
45.63
48.84
50.85
51.70
51.37
49.82
47.17
44.01
41.44
40.79
43.06
48.27
55.37
62.64
68.44
71.65
71.78
68.61
61.85
51.16
36.69
19.68
2.54
-11.77
-20.97
-24.59
-24.12
-22.09
-20.49
-19.68
-18.44
-15.29
-10.03
-4.48
-1.57
-3.40
-9.64
-17.38
-22.91
-23.91
-20.97
-17.12
-15.71
-18.34
-23.88
-29.45
-32.33
-31.58
-28.16
-23.96
-20.40
-17.85
-15.91
-14.15
-12.65
-11.71
-11.57
-12.03
-12.88
-14.21
-16.43
-19.87
-24.15
-28.23
-30.90
-31.64
-30.94
-29.88
-29.18
-28.47
-26.52
-22.07
-15.06
-6.90
0.11
4.15
4.88
3.40
1.50
0.33
-0.06
-0.43
-1.53
-3.39
-5.21
-5.97
-5.12
-2.95
-0.43
1.45
2.24
2.11
1.65
1.25
0.89
0.10
-1.58
-4.24
-7.41
-10.39
-12.63
-14.08
-15.25
-16.63
-18.33
-19.61
-19.33
-16.56
-11.33
-4.82
1.19
5.15
6.58
6.23
5.56
5.82
7.41
9.72
11.63
12.25
11.36
9.52
7.67
6.77
7.35
9.47
12.83
16.78
20.53
23.24
24.39
23.85
22.07
19.88
18.12
17.25
17.15
17.20
16.56
14.59
11.09
6.42
1.40
-3.05
-6.15
-7.69
-8.07
-8.17
-8.89
-10.52
-12.53
-13.68
-12.82
-9.48
-4.36
1.21
6.02
9.62
12.35
14.79
17.12
18.77
18.96
17.33
14.54
12.15
11.74
14.08
18.67
24.14
29.05
32.72
35.30
37.30
39.07
40.39
40.78
39.96
38.48
37.45
38.01
40.46
43.76
45.89
44.72
39.01
28.78
15.02
-1.18
-19.22
-39.00
-60.11
-80.76
-97.45
-105.78
-102.42
-87.08
-63.34
-37.50
-15.97
-2.59
2.64
2.56
0.75
-0.75
-1.99
-3.96
-6.75
-8.68
-7.07
-0.19
11.00
23.14
32.38
36.80
37.69
38.45
42.24
49.79
58.94
65.91
67.66
63.26
53.73
40.82
25.79
9.18
-8.65
-26.92
-44.62
-61.10
-76.45
-91.12
-104.67
-115.12
-119.35
-114.99
-102.36
-85.04
-68.49
-57.37
-53.42
-55.07
-59.15
-63.06
-66.01
-68.61
-71.25
-73.15
-72.42
-67.48
-58.48
-47.95
-39.78
-37.26
-41.58
-51.17
-62.75
-72.99
-80.06
-84.16
-86.92
-90.22
-94.92
-100.70
-106.51
-111.64
-116.14
-120.60
-125.50
-130.65
-135.12
-137.63
-137.01
-132.23
-122.44
-106.86
-85.26
-58.48
-28.81
0.32
25.52
44.58
57.33
65.41
71.31
77.18
84.08
91.97
100.06
107.59
114.09
119.68
124.76
129.53
133.75
136.57
137.07
135.03
131.36
128.05
127.29
130.06
135.36
140.29
141.28
136.00
124.61
110.01
96.52
88.06
86.36
90.39
96.97
102.41
104.07
101.31
95.43
88.66
83.02
79.38
77.21
75.04
70.80
62.07
46.08
20.29
-16.24
-60.93
-106.79
-143.53
-161.06
-153.97
-124.31
-81.33
-37.59
-3.66
15.70
22.13
21.10
18.26
16.61
16.34
16.21
15.32
13.90
12.81
12.70
13.34
13.90
13.37
11.12
6.93
0.75
-7.34
-17.24
-28.34
-39.15
-47.33
-50.17
-45.52
-32.63
-12.54
12.06
37.17
58.36
71.56
73.72
63.66
42.52
13.77
-17.47
-45.70
-66.74
-78.53
-81.33
-76.78
-66.78
-52.93
-36.60
-19.58
-4.31
6.79
12.62
14.34
15.25
19.43
29.54
45.11
62.35
75.78
80.33
73.22
54.62
27.28
-4.02
-33.34
-54.10
-60.21
-48.10
-18.87
20.96
61.13
91.32
105.21
102.36
86.95
64.08
36.42
3.38
-36.41
-81.07
-123.16
-151.35
-155.47
-132.04
-86.75
-32.22
17.69
53.47
72.25
76.40
70.17
56.93
38.74
17.82
-1.74
-13.89
-12.96
3.18
31.13
62.79
88.77
102.70
103.99
97.22
89.04
84.48
84.62
87.09
88.50
86.81
82.03
75.09
65.90
52.91
34.42
10.97
-13.35
-32.09
-39.46
-33.47
-16.89
4.41
24.59
40.17
50.49
56.56
59.44
59.58
57.23
53.08
48.56
45.23
43.92
44.37
45.36
45.21
42.56
36.56
26.79
12.90
-5.59
-29.15
-57.76
-90.35
-124.73
-157.91
-187.07
-210.27
-226.66
-236.16
-238.94
-235.31
-226.07
-213.07
-199.24
-187.57
-179.51
-173.59
-165.37
-148.97
-119.64
-76.08
-21.29
38.52
95.99
144.93
181.73
205.43
217.12
219.06
213.90
204.37
193.03
182.01
172.66
165.50
160.26
156.48
153.98
153.18
154.82
159.28
165.75
171.86
174.22
169.33
154.60
129.17
94.09
52.01
6.63
-37.77
-76.84
-106.90
-125.69
-133.14
-131.42
-124.18
-114.91
-105.33
-94.69
-80.64
-60.99
-35.77
-7.83
18.30
38.65
51.75
58.85
62.54
64.64
65.07
62.49
56.17
47.23
38.41
32.11
27.89
21.88
8.98
-13.25
-41.74
-68.32
-83.93
-84.49
-74.30
-64.53
-67.01
-87.21
-120.61
-155.22
-178.41
-183.82
-174.20
-158.46
-145.50
-138.81
-135.62
-130.19
-118.89
-103.11
-88.15
-79.41
-78.51
-82.19
-84.42
-80.62
-70.59
-58.63
-50.64
-50.16
-55.88
-61.98
-61.55
-50.58
-30.46
-7.42
11.01
19.85
18.93
12.15
4.66
-0.05
-1.32
-0.40
1.47
4.26
8.56
14.27
19.58
21.41
17.18
6.50
-8.37
-23.61
-35.70
-42.97
-45.82
-46.06
-45.97
-47.83
-53.43
-63.62
-77.68
-93.21
-107.02
-116.75
-122.45
-126.91
-134.26
-147.46
-166.10
-185.99
-200.67
-204.34
-194.13
-170.93
-138.36
-100.57
-60.43
-18.66
25.47
72.49
121.34
168.69
209.63
239.24
254.33
254.37
241.42
219.29
192.40
165.13
141.34
124.05
115.01
114.41
120.79
131.44
143.04
152.51
157.62
157.10
150.74
139.28
124.32
107.71
91.07
75.20
59.86
44.28
27.66
9.80
-8.53
-25.71
-39.68
-48.40
-50.63
-46.52
-37.94
-28.22
-20.97
-18.50
-20.86
-26.00
-31.00
-33.68
-33.48
-31.00
-27.07
-21.63
-14.00
-3.77
8.08
19.08
26.33
27.98
24.37
17.87
11.66
8.22
8.31
11.02
14.28
15.50
12.00
1.82
-15.69
-38.90
-63.73
-84.62
-96.80
-98.75
-93.44
-87.53
-88.81
-103.20
-132.89
-175.97
-227.63
-281.44
-330.58
-368.46
-389.59
-390.92
-373.11
-340.77
-301.22
-261.78
-227.17
-198.25
-172.77
-147.51
-120.48
-91.68
-62.53
-34.41
-7.65
18.83
46.58
76.60
108.60
141.21
172.72
201.79
227.68
249.86
267.54
279.65
285.29
284.68
279.75
274.03
271.39
274.47
283.20
294.58
303.81
306.24
299.48
284.32
264.19
243.29
224.61
208.66
193.65
177.06
157.18
134.03
108.74
82.37
55.21
27.18
-0.82
-26.06
-44.47
-52.84
-50.88
-41.99
-31.76
-24.82
-22.27
-21.21
-16.80
-5.32
13.45
36.27
58.38
76.16
88.68
97.32
103.99
109.24
112.07
110.64
103.96
92.96
80.09
67.92
57.56
48.07
36.92
21.80
2.04
-20.78
-43.39
-62.37
-75.80
-84.06
-89.28
-94.38
-101.51
-111.33
-122.91
-134.38
-143.94
-150.54
-154.01
-154.52
-152.21
-146.96
-139.12
-130.32
-123.88
-123.93
-132.96
-149.98
-169.72
-184.34
-186.75
-174.03
-148.80
-117.72
-88.27
-64.92
-47.61
-32.88
-16.70
2.88
24.68
45.39
61.84
72.48
77.80
79.18
77.68
73.38
65.87
55.41
43.64
33.66
28.52
29.80
36.65
46.04
54.18
58.17
57.09
51.97
45.06
38.65
34.40
33.02
34.45
38.09
43.00
48.12
52.60
56.14
58.94
61.57
64.43
67.12
68.24
65.50
56.52
39.81
15.79
-12.73
-40.98
-63.72
-77.23
-80.76
-76.80
-69.70
-63.40
-59.46
-56.69
-52.49
-45.10
-35.30
-26.22
-21.55
-23.10
-29.53
-36.93
-40.95
-39.09
-31.88
-22.32
-14.15
-9.94
-10.08
-13.06
-16.67
-19.37
-20.99
-22.41
-24.69
-28.07
-31.57
-33.45
-32.10
-26.98
-18.77
-9.14
0.14
7.90
13.77
18.04
21.25
24.03
27.02
30.81
35.57
40.51
43.75
42.89
36.25
24.16
9.43
-3.68
-11.35
-12.18
-7.79
-1.84
1.94
1.68
-2.05
-6.99
-10.84
-12.50
-12.50
-12.25
-13.03
-15.31
-18.55
-21.69
-23.66
-23.84
-22.17
-19.17
-15.75
-12.89
-11.43
-11.82
-14.14
-18.06
-22.78
-27.06
-29.40
-28.55
-24.12
-17.11
-9.54
-3.74
-0.95
-0.73
-1.23
-0.35
2.77
7.16
10.52
10.75
7.28
1.50
-4.13
-7.60
-8.37
-7.56
-6.86
-7.34
-8.73
-9.70
-8.90
-5.85
-1.39
2.87
5.37
5.47
3.49
0.53
-2.19
-3.79
-3.85
-2.46
-0.02
2.73
4.80
5.23
3.37
-0.69
-6.00
-10.79
-13.16
-11.81
-6.70
0.77
8.28
13.54
15.29
13.80
10.74
8.23
7.75
9.45
12.05
13.71
13.04
9.96
5.57
1.57
-0.77
-1.10
0.01
1.59
2.97
4.05
5.27
7.10
9.49
11.88
13.40
13.43
11.87
9.20
6.14
3.37
1.25
-0.17
-1.02
-1.58
-2.09
-2.77
-3.63
-4.62
-5.67
-6.79
-8.16
-9.94
-12.08
-14.11
-15.23
-14.73
-12.54
-9.58
-7.45
-7.70
-10.96
-16.37
-21.79
-24.95
-24.68
-21.90
-19.86
-23.44
-37.37
-64.32
-103.61
-151.28
-201.55
-248.66
-288.29
-317.80
-335.58
-340.33
-330.87
-307.00
-270.50
-225.55
-177.87
-132.94
-94.14
-61.86
-34.06
-7.49
20.90
52.98
89.14
128.36
168.22
205.22
235.57
255.84
263.77
258.95
242.94
218.93
191.00
163.30
139.09
120.46
108.00
101.17
98.74
99.27
101.55
104.59
107.58
109.69
110.14
108.31
103.99
97.47
89.43
80.77
72.26
64.40
57.30
50.78
44.39
37.67
30.44
22.86
15.59
9.55
5.61
4.16
4.98
7.24
9.75
11.47
11.57
9.74
5.99
0.61
-5.95
-13.08
-19.98
-25.87
-29.87
-31.43
-30.30
-26.88
-22.07
-17.08
-12.97
-10.20
-8.60
-7.42
-5.90
-3.44
0.16
4.82
10.24
15.97
21.48
26.08
29.15
30.21
29.13
26.08
21.57
16.29
11.08
6.83
4.25
3.78
5.25
7.99
11.02
13.36
14.38
13.85
11.96
9.08
5.73
2.41
-0.39
-2.31
-3.32
-3.68
-3.95
-4.70
-6.27
-8.52
-10.91
-12.82
-13.77
-13.76
-13.14
-12.52
-12.40
-12.93
-13.96
-15.09
-15.98
-16.46
-16.67
-16.88
-17.44
-18.67
-20.81
-24.01
-28.11
-32.84
-37.56
-41.60
-44.34
-45.52
-45.28
-44.15
-42.87
-42.05
-42.03
-42.75
-43.91
-45.06
-45.75
-45.59
-44.31
-41.76
-37.87
-32.55
-25.69
-17.20
-7.25
3.51
13.87
22.39
27.88
30.05
29.68
28.38
27.80
28.76
31.02
33.35
34.37
33.15
29.63
24.35
17.97
10.87
3.07
-5.45
-14.24
-22.20
-27.90
-30.28
-29.32
-26.27
-23.00
-21.07
-20.63
-20.28
-17.74
-11.03
0.35
15.05
30.33
43.19
51.46
54.49
53.21
49.63
46.20
45.09
47.66
54.09
63.23
72.55
78.64
77.79
67.34
46.85
19.05
-10.31
-34.11
-46.40
-45.06
-32.94
-16.88
-4.71
-1.80
-8.83
-21.92
-34.84
-42.09
-41.21
-33.28
-21.68
-10.10
-0.95
5.25
9.23
11.87
13.37
13.06
9.93
3.56
-5.26
-14.57
-22.11
-26.39
-27.56
-27.37
-28.17
-31.56
-37.38
-43.74
-48.01
-48.28
-44.37
-37.96
-31.63
-27.62
-26.81
-28.45
-30.72
-31.41
-28.56
-20.79
-7.46
11.14
33.61
57.46
79.59
97.17
108.49
113.47
113.37
109.95
104.56
97.71
89.18
78.85
67.22
55.53
45.26
37.37
31.54
26.20
19.20
8.85
-5.00
-20.71
-35.27
-45.45
-49.42
-47.67
-43.14
-40.00
-41.83
-49.70
-61.35
-71.99
-76.49
-72.09
-59.91
-44.62
-32.07
-26.36
-27.83
-33.19
-37.66
-37.61
-32.47
-24.44
-16.80
-11.82
-9.61
-8.57
-6.85
-3.84
-0.47
1.43
0.63
-2.68
-6.85
-9.79
-10.14
-7.99
-4.75
-2.35
-2.37
-5.30
-10.49
-16.46
-21.39
-23.83
-23.07
-19.63
-14.91
-10.65
-8.08
-7.24
-7.12
-6.25
-3.68
0.45
4.85
7.94
8.69
7.13
4.26
1.24
-1.16
-2.95
-4.50
-6.04
-7.28
-7.57
-6.27
-3.35
0.48
4.07
6.40
7.08
6.46
5.31
4.26
3.47
2.75
1.87
0.90
0.12
-0.26
-0.45
-1.02
-2.57
-5.28
-8.63
-11.65
-13.31
-13.11
-11.27
-8.50
-5.71
-3.50
-2.06
-1.09
-0.05
1.62
4.35
8.21
12.98
18.12
23.16
27.87
32.41
37.17
42.35
47.53
51.66
53.53
52.49
49.07
44.82
41.55
40.18
40.14
39.60
36.65
30.59
22.62
15.42
11.82
13.38
19.56
27.96
35.33
38.85
37.18
30.95
22.53
15.07
11.39
12.85
18.65
26.30
32.62
34.82
30.92
19.81
1.23
-23.65
-51.41
-76.24
-91.44
-92.44
-79.91
-60.51
-44.17
-39.16
-47.63
-64.56
-80.85
-88.57
-85.39
-75.05
-64.16
-57.58
-55.35
-53.38
-46.95
-34.46
-19.01
-6.87
-3.67
-10.80
-24.44
-37.71
-44.32
-42.05
-33.78
-25.52
-22.64
-26.83
-35.17
-42.04
-42.21
-33.14
-15.10
10.32
42.08
79.98
123.09
167.94
207.69
233.77
239.05
220.82
181.64
127.54
65.23
0.08
-63.82
-122.26
-169.69
-199.71
-207.46
-192.18
-158.49
-115.09
-71.56
-34.90
-7.73
11.40
26.09
39.52
52.88
65.12
74.02
77.58
75.08
67.38
56.45
44.61
33.78
25.30
19.96
18.25
20.34
25.78
33.13
39.94
43.29
40.66
31.02
15.19
-4.29
-24.08
-40.93
-52.52
-57.92
-57.39
-52.19
-43.95
-34.43
-25.18
-17.50
-12.22
-9.50
-8.69
-8.36
-6.71
-2.32
5.30
15.23
25.34
33.04
36.37
34.74
29.26
22.22
16.12
12.71
12.27
13.58
14.43
12.62
6.82
-2.76
-14.43
-25.68
-34.11
-38.37
-38.44
-35.50
-30.97
-26.05
-21.21
-16.04
-9.60
-0.71
11.60
27.84
47.53
68.86
88.38
101.38
102.87
89.21
59.96
18.83
-26.52
-66.53
-92.91
-101.77
-95.21
-80.40
-66.64
-61.35
-67.42
-82.53
-101.17
-117.41
-127.27
-129.17
-122.90
-108.72
-86.55
-57.23
-23.36
10.59
39.86
61.27
74.64
82.25
86.83
89.79
90.62
88.10
82.03
73.97
66.53
61.52
58.87
56.83
53.81
49.77
46.36
45.34
46.66
47.94
45.75
38.15
26.05
13.01
2.92
-2.46
-4.39
-6.09
-10.57
-18.94
-30.07
-41.83
-52.26
-60.13
-64.60
-64.76
-60.09
-51.59
-42.50
-37.64
-41.36
-54.93
-75.29
-96.26
-111.25
-116.46
-112.25
-102.01
-89.49
-76.32
-61.39
-42.28
-17.83
10.50
38.79
62.74
79.75
89.77
94.50
95.92
95.03
91.73
85.88
77.98
69.31
61.24
54.41
48.68
43.82
40.23
38.91
40.73
45.46
51.48
56.56
58.91
58.04
54.53
49.29
42.90
35.54
27.43
19.21
11.90
6.20
2.27
-0.44
-2.53
-4.15
-4.79
-3.66
-0.29
5.23
12.36
20.60
29.71
39.46
49.28
57.82
63.43
64.88
62.27
57.11
52.04
49.44
50.58
55.15
61.59
67.75
71.33
70.19
62.60
47.89
27.16
3.76
-17.32
-31.21
-35.10
-29.63
-18.56
-7.02
0.88
3.51
1.65
-2.82
-8.54
-15.34
-23.71
-33.73
-44.16
-52.78
-57.41
-57.18
-52.91
-46.82
-41.18
-37.35
-35.44
-34.63
-33.93
-32.66
-30.69
-28.13
-25.28
-22.62
-20.82
-20.75
-22.96
-27.18
-32.06
-35.65
-36.43
-34.46
-31.66
-31.00
-35.01
-44.24
-56.79
-69.17
-77.94
-81.29
-79.67
-75.42
-71.39
-69.84
-71.64
-76.26
-81.97
-86.05
-85.17
-75.99
-56.40
-26.80
9.22
45.78
76.79
98.15
108.64
109.27
101.52
86.03
62.97
33.53
1.42
-27.35
-46.61
-53.01
-47.83
-36.19
-24.07
-15.09
-9.11
-3.44
4.68
15.72
27.75
37.90
44.50
48.00
50.44
53.82
58.67
63.83
67.24
67.35
63.88
57.81
50.68
43.81
37.86
32.90
28.73
25.16
22.11
19.53
17.28
15.00
12.16
8.23
2.76
-4.51
-13.70
-24.68
-37.11
-50.40
-63.63
-75.55
-84.57
-89.13
-87.96
-80.59
-67.49
-50.21
-31.05
-12.59
2.88
14.04
20.71
23.88
25.20
26.35
28.33
31.01
33.43
34.16
32.11
27.18
20.46
13.91
9.58
8.65
10.89
14.73
17.81
18.10
14.70
8.11
-0.03
-7.72
-13.34
-16.13
-16.05
-13.69
-9.80
-5.11
-0.38
3.70
6.66
8.33
9.05
9.88
12.07
16.53
22.83
28.90
31.84
29.70
23.20
16.26
14.39
21.65
37.92
58.10
74.13
78.78
69.29
48.60
23.75
2.29
-11.06
-15.85
-14.80
-11.49
-8.24
-5.39
-2.01
2.92
9.30
15.83
20.62
22.08
19.66
14.11
7.09
0.45
-4.44
-7.33
-8.95
-10.73
-14.14
-20.14
-29.38
-42.53
-60.52
-84.14
-113.13
-145.05
-175.11
-197.13
-205.68
-198.09
-175.23
-140.87
-100.02
-57.70
-18.63
12.14
29.22
27.98
6.98
-29.96
-73.65
-111.81
-133.50
-132.97
-111.36
-75.45
-34.09
5.32
39.07
66.84
89.92
109.28
124.64
134.86
139.21
138.34
134.50
130.73
129.60
132.31
138.25
145.47
151.50
154.22
152.48
146.19
136.28
124.21
111.73
100.53
92.38
89.03
91.93
101.84
117.89
137.22
155.05
165.87
165.13
150.83
124.21
89.20
50.92
13.96
-18.58
-45.27
-65.71
-79.82
-87.38
-88.07
-81.89
-69.75
-53.99
-38.56
-28.47
-28.25
-39.90
-60.90
-83.68
-97.29
-91.07
-59.41
-4.76
62.20
126.48
174.64
199.70
202.78
190.54
170.49
146.95
120.21
88.84
53.15
17.24
-12.32
-30.08
-35.45
-33.84
-34.43
-45.65
-71.40
-109.74
-154.67
-199.84
-241.73
-280.87
-320.23
-362.33
-406.37
-447.28
-477.22
-488.49
-476.78
-442.72
-391.63
-331.30
-269.33
-211.04
-158.63
-111.84
-69.02
-28.14
12.55
54.51
99.14
148.10
202.98
264.41
330.69
396.99
455.67
498.19
517.84
511.93
482.65
435.88
379.06
319.05
261.00
208.32
162.93
125.39
94.42
66.84
37.98
3.04
-40.91
-93.27
-149.34
-201.24
-239.39
-255.23
-243.84
-206.01
-149.01
-85.66
-31.30
0.86
4.17
-18.86
-57.77
-98.74
-130.71
-149.86
-160.17
-169.39
-182.94
-199.59
-211.46
-209.29
-189.02
-155.56
-120.97
-97.73
-91.17
-95.76
-98.19
-85.27
-52.16
-5.36
40.92
72.60
83.10
75.82
60.60
46.92
38.54
32.58
22.92
5.68
-17.42
-39.31
-51.40
-48.19
-30.21
-3.47
23.53
43.76
54.17
55.90
52.96
49.72
48.97
51.13
54.68
57.23
56.77
52.54
45.35
37.35
31.16
28.82
30.73
35.39
40.11
42.56
42.09
39.97
38.21
37.83
37.82
35.74
29.21
17.53
1.66
-16.84
-37.20
-59.66
-84.25
-109.05
-129.64
-140.68
-138.77
-124.85
-104.14
-83.97
-70.55
-66.61
-71.45
-82.37
-96.43
-111.28
-124.91
-135.13
-139.71
-137.33
-128.69
-116.68
-105.27
-97.43
-93.51
-90.74
-84.45
-69.97
-44.45
-7.70
37.94
88.60
139.70
186.78
225.89
253.72
268.13
268.54
256.41
235.02
208.85
182.20
158.04
137.66
120.85
107.01
95.79
87.35
81.71
77.81
73.31
65.06
50.61
29.80
5.47
-17.69
-35.51
-46.54
-52.71
-58.18
-67.15
-81.78
-101.94
-126.05
-152.49
-180.44
-209.49
-238.65
-265.65
-287.53
-302.01
-308.79
-309.51
-306.54
-301.29
-293.35
-281.40
-264.86
-245.57
-227.65
-216.23
-215.04
-224.31
-240.46
-257.24
-267.93
-267.67
-254.86
-231.61
-202.85
-174.33
-150.47
-132.63
-118.54
-103.20
-81.33
-49.89
-9.37
36.37
81.70
121.24
151.05
168.80
173.06
162.65
137.13
98.00
49.57
-1.03
-45.72
-78.11
-95.59
-100.29
-97.89
-94.97
-96.41
-103.89
-116.01
-129.64
-141.60
-149.73
-153.16
-152.03
-146.67
-137.32
-124.35
-108.37
-90.32
-71.67
-53.89
-38.04
-24.53
-12.85
-1.95
9.37
21.99
36.23
51.85
68.42
85.85
104.56
125.39
148.96
174.96
201.81
226.95
247.84
263.01
272.88
279.58
286.17
295.31
308.37
325.09
343.96
362.85
379.46
391.66
397.60
396.23
387.96
375.10
361.64
352.01
349.19
353.33
361.45
368.60
370.10
363.41
348.99
329.45
307.81
285.82
263.33
239.14
212.36
183.94
156.92
135.61
123.94
123.79
134.31
152.31
173.66
194.53
212.52
226.76
237.25
244.33
247.96
247.83
243.57
235.20
223.31
208.93
193.30
177.43
161.99
147.11
132.61
118.13
103.43
88.52
73.62
58.95
44.57
30.27
15.67
0.51
-15.04
-30.14
-43.32
-52.80
-56.99
-54.97
-46.67
-32.97
-15.46
3.93
23.23
40.71
55.00
65.08
70.26
70.16
64.76
54.39
39.94
22.71
4.35
-13.37
-28.88
-41.08
-49.47
-54.05
-55.22
-53.47
-49.31
-43.05
-34.96
-25.48
-15.35
-5.81
1.73
5.94
5.98
1.72
-6.24
-16.95
-29.54
-43.71
-59.88
-78.98
-102.00
-129.42
-160.92
-195.49
-231.90
-269.17
-306.91
-345.42
-385.37
-427.83
-474.22
-526.27
-585.19
-650.44
-718.30
-781.55
-830.82
-857.46
-856.75
-829.71
-782.72
-724.95
-664.97
-608.21
-556.18
-507.52
-459.70
-410.64
-359.32
-305.76
-250.71
-195.21
-140.61
-88.23
-39.12
6.27
48.33
88.71
129.98
174.61
223.25
272.80
315.95
342.51
343.08
313.38
257.29
186.72
117.98
66.28
40.72
42.24
65.00
99.98
138.88
176.39
210.39
240.58
267.32
290.92
312.00
331.64
351.24
371.82
392.91
412.11
425.52
429.04
419.54
395.95
359.33
312.25
257.88
199.17
138.60
78.37
20.89
-31.01
-74.08
-105.22
-122.50
-125.88
-117.69
-102.12
-84.22
-68.42
-57.66
-52.81
-52.93
-55.89
-59.12
-60.25
-57.45
-49.75
-37.07
-20.16
-0.51
19.79
38.27
52.45
60.31
60.90
54.71
43.60
30.22
17.00
5.28
-5.16
-15.70
-28.03
-43.06
-60.07
-76.95
-90.79
-99.38
-102.20
-101.11
-99.87
-102.97
-113.98
-133.84
-160.06
-186.85
-206.78
-212.95
-201.12
-170.88
-125.31
-69.63
-9.08
52.41
112.94
172.15
230.23
286.90
340.85
389.91
431.51
463.54
484.92
495.97
498.11
493.20
482.68
466.95
445.62
418.17
385.06
348.12
310.30
274.59
242.93
215.67
191.78
169.79
148.51
127.49
106.81
86.56
66.57
46.46
26.19
6.46
-11.00
-23.90
-30.27
-29.48
-22.92
-13.73
-5.84
-2.58
-5.59
-14.42
-27.12
-41.18
-54.49
-65.80
-74.57
-80.64
-83.83
-84.11
-81.76
-77.71
-73.34
-70.01
-68.58
-68.91
-70.14
-71.06
-70.92
-69.91
-69.22
-70.58
-75.47
-84.46
-96.89
-111.31
-126.07
-140.23
-153.98
-168.48
-185.44
-206.40
-232.34
-263.35
-298.25
-334.45
-368.02
-394.35
-409.01
-409.03
-393.61
-364.22
-324.06
-277.16
-227.72
-179.74
-137.20
-104.08
-84.04
-79.51
-90.40
-113.30
-141.60
-167.00
-181.93
-181.69
-165.88
-138.37
-105.55
-73.89
-47.76
-27.97
-11.89
5.06
27.02
55.10
85.80
111.23
121.24
107.24
66.56
4.70
-65.45
-127.49
-167.03
-176.32
-155.96
-113.14
-57.79
1.32
58.83
112.64
162.28
207.42
247.49
282.28
312.64
340.25
366.37
390.28
408.78
417.10
410.85
387.91
349.36
298.99
241.89
183.16
126.96
76.26
32.93
-2.32
-29.99
-51.82
-70.57
-89.76
-113.36
-145.28
-188.34
-242.69
-304.05
-363.43
-408.81
-428.93
-417.91
-378.48
-321.83
-264.10
-220.53
-200.44
-204.73
-226.97
-257.09
-285.62
-306.73
-319.06
-324.80
-327.89
-332.37
-341.01
-354.49
-370.92
-386.16
-394.40
-389.90
-369.18
-333.27
-288.45
-244.86
-212.94
-199.06
-202.59
-215.83
-227.17
-225.81
-205.69
-166.92
-114.22
-53.89
8.85
70.75
129.74
183.66
229.67
264.92
288.18
300.95
307.52
313.92
326.07
348.13
380.91
421.41
463.06
497.36
516.03
513.39
487.84
442.33
383.36
319.21
258.13
206.17
166.76
140.54
125.81
118.82
114.70
109.03
99.54
87.71
77.67
74.61
82.69
103.41
135.15
173.88
214.48
251.58
280.38
295.85
293.62
272.07
233.66
184.92
134.79
91.82
59.00
39.83
35.37
43.23
58.94
78.35
98.80
118.88
138.34
156.84
174.13
189.17
200.63
207.55
209.38
205.72
196.50
182.33
164.05
143.06
120.22
96.05
70.96
45.33
19.56
-5.94
-30.70
-54.42
-76.78
-98.09
-119.26
-141.46
-165.81
-192.95
-222.77
-254.42
-286.61
-317.88
-347.27
-374.56
-400.12
-424.66
-449.15
-474.71
-502.38
-532.57
-564.18
-594.20
-617.90
-630.11
-627.15
-608.22
-575.74
-534.15
-488.04
-440.48
-392.64
-344.56
-296.40
-249.26
-204.87
-164.83
-129.61
-98.44
-69.98
-43.37
-18.74
2.84
20.08
32.54
41.16
48.00
55.52
65.59
78.66
93.71
108.89
122.41
133.63
143.35
153.48
166.20
182.95
203.80
227.62
252.76
278.04
303.34
329.67
358.61
391.62
429.54
472.26
518.26
564.25
604.93
633.45
642.75
627.72
587.30
525.28
449.39
368.70
290.43
217.95
150.70
86.17
22.53
-39.59
-97.32
-147.30
-188.02
-220.94
-249.86
-278.53
-308.17
-336.16
-356.87
-364.34
-354.98
-329.06
-290.07
-242.64
-190.73
-136.81
-82.81
-31.32
13.85
48.63
70.60
80.68
83.41
85.29
92.00
105.64
123.80
140.50
148.88
144.36
126.72
100.53
73.63
54.59
50.09
63.24
93.24
135.96
185.24
233.95
275.40
304.49
318.83
319.10
308.29
290.16
267.46
241.10
210.55
175.29
136.16
95.68
56.91
21.74
-10.35
-42.36
-78.46
-122.24
-174.86
-233.82
-292.90
-343.14
-375.62
-384.94
-372.13
-345.43
-318.27
-304.62
-313.73
-346.31
-394.17
-443.45
-479.85
-493.63
-482.07
-448.61
-399.92
-342.34
-279.73
-213.41
-143.57
-70.81
3.05
75.45
143.55
204.66
256.31
296.31
323.72
340.23
351.16
364.44
387.24
422.02
464.02
502.40
524.68
522.51
495.31
449.91
396.54
343.80
295.43
250.45
205.88
159.84
112.99
67.70
25.37
-15.57
-59.21
-109.04
-164.12
-217.21
-256.43
-270.08
-252.60
-208.03
-149.17
-92.55
-51.80
-32.72
-32.19
-41.37
-50.58
-53.67
-49.48
-40.38
-29.68
-19.32
-9.48
0.65
11.64
23.27
34.67
44.98
53.71
60.37
63.93
62.45
53.38
34.19
3.26
-39.43
-91.55
-147.98
-201.24
-242.81
-265.77
-267.57
-251.56
-226.05
-201.13
-184.81
-180.59
-187.74
-203.38
-224.96
-251.18
-281.07
-312.38
-340.89
-361.34
-369.58
-364.45
-347.99
-324.22
-297.34
-270.24
-244.13
-219.19
-195.35
-172.85
-152.01
-132.28
-111.50
-85.53
-49.54
-0.12
62.18
131.48
197.30
247.61
272.88
268.99
238.25
187.69
126.67
64.59
9.91
-30.79
-52.59
-52.12
-28.47
15.70
73.50
134.98
189.91
231.09
255.44
263.94
260.45
249.58
235.21
220.43
208.54
204.07
212.50
236.43
273.02
314.01
348.08
365.20
360.48
335.93
299.05
259.42
222.78
188.98
153.56
111.32
60.18
2.93
-53.42
-105.64
-146.14
-170.30
-181.38
-188.61
-199.73
-215.78
-231.50
-240.52
-239.25
-228.04
-211.81
-196.76
-186.66
-181.02
-176.17
-167.75
-153.27
-132.60
-107.45
-81.17
-56.92
-35.72
-15.82
6.23
33.85
69.31
113.65
167.37
229.72
298.55
369.91
437.83
494.80
533.52
549.27
541.91
515.99
478.39
435.81
392.74
351.00
310.32
269.45
227.09
182.18
133.75
80.91
23.19
-38.64
-102.13
-163.70
-219.62
-267.38
-307.00
-341.46
-375.79
-414.74
-460.06
-508.45
-551.76
-579.51
-582.86
-557.79
-506.25
-434.78
-351.86
-265.70
-183.35
-110.71
-52.76
-13.00
7.62
11.19
2.08
-14.96
-36.57
-61.07
-87.32
-113.02
-134.23
-146.52
-147.22
-137.01
-119.76
-100.46
-82.96
-68.67
-57.18
-47.74
-40.69
-37.45
-39.34
-45.92
-54.33
-60.06
-58.52
-46.59
-23.49
8.85
46.01
81.72
109.08
122.65
120.96
108.10
92.77
85.26
92.90
116.71
150.73
184.72
208.67
216.86
209.02
188.78
160.36
126.06
85.90
39.48
-11.45
-61.83
-104.39
-132.76
-144.61
-142.71
-133.43
-123.49
-116.87
-113.26
-108.68
-97.89
-76.65
-43.54
-0.57
47.21
93.30
131.94
159.95
177.64
187.97
194.63
199.51
201.32
196.25
180.51
153.06
117.11
79.15
46.40
24.12
14.11
15.11
24.55
40.18
60.86
86.12
114.81
144.23
170.13
187.91
194.38
189.28
175.28
156.69
137.61
120.32
104.82
89.45
72.24
52.10
29.47
6.00
-16.38
-36.09
-52.54
-65.80
-76.12
-83.25
-86.22
-83.48
-73.60
-56.32
-33.31
-8.07
14.95
31.85
40.60
41.40
36.01
26.51
14.13
-0.80
-18.07
-36.77
-55.05
-70.83
-83.05
-92.14
-99.18
-104.34
-105.68
-99.74
-83.28
-55.54
-19.11
21.33
61.72
100.89
140.61
183.31
228.52
270.88
301.20
310.37
293.89
254.53
201.40
145.97
97.17
58.22
26.30
-4.87
-41.30
-85.43
-134.68
-182.27
-219.75
-239.87
-238.81
-216.87
-177.57
-126.27
-69.08
-12.63
36.34
71.96
90.83
93.72
85.28
71.96
58.53
46.12
32.64
15.90
-3.24
-20.40
-30.47
-31.60
-27.35
-25.12
-31.71
-49.13
-73.44
-97.50
-115.64
-127.44
-138.32
-156.61
-188.92
-236.38
-293.44
-349.74
-393.81
-417.15
-416.37
-393.52
-354.25
-305.37
-252.67
-199.79
-148.63
-100.43
-56.81
-19.94
7.85
25.22
32.90
34.11
33.94
37.68
48.88
67.57
90.33
111.74
126.94
134.00
134.56
132.82
133.21
138.37
148.31
160.57
171.32
176.54
173.28
160.26
138.29
110.01
79.17
49.36
22.85
0.05
-19.92
-38.01
-54.13
-66.84
-74.48
-76.59
-74.95
-73.13
-74.82
-81.83
-93.09
-105.37
-114.92
-119.36
-118.44
-113.55
-106.65
-99.21
-91.88
-84.83
-78.23
-72.26
-66.96
-61.95
-56.54
-50.17
-42.81
-35.19
-28.23
-22.41
-17.27
-11.69
-4.65
4.01
13.16
21.04
26.07
27.83
27.36
26.76
28.31
33.62
43.07
55.69
69.62
82.53
92.30
97.24
96.50
90.12
79.20
65.78
52.42
41.56
34.89
32.93
34.88
39.00
43.12
45.18
43.73
38.25
29.23
18.13
7.08
-1.55
-5.93
-5.46
-1.11
4.89
9.95
12.11
10.84
7.03
2.41
-1.40
-3.75
-5.29
-7.66
-12.60
-21.07
-32.64
-45.61
-57.56
-66.17
-69.86
-68.12
-61.33
-50.44
-36.70
-21.41
-6.09
7.65
18.40
25.40
28.88
29.89
29.77
29.35
28.65
27.01
23.72
18.71
12.91
7.94
5.38
6.23
10.47
17.28
25.62
34.76
44.58
55.38
67.42
80.20
92.23
101.21
105.02
102.73
95.09
84.29
72.98
63.07
55.01
47.97
40.56
31.84
21.87
11.45
1.64
-7.02
-14.58
-21.52
-28.03
-33.65
-37.13
-37.07
-32.83
-25.09
-16.06
-8.80
-5.90
-8.26
-14.64
-22.33
-28.30
-30.67
-29.23
-25.37
-21.09
-18.00
-16.70
-16.76
-17.20
-17.13
-16.23
-14.80
-13.52
-12.99
-13.35
-14.28
-15.19
-15.56
-15.23
-14.51
-13.85
-13.62
-13.84
-14.27
-14.63
-14.90
-15.30
-16.13
-17.52
-19.30
-21.11
-22.55
-23.26
-22.99
-21.48
-18.58
-14.38
-9.39
-4.48
-0.55
1.88
3.02
3.62
4.59
6.45
9.07
11.80
13.87
14.79
14.47
13.20
11.25
8.84
5.96
2.62
-0.97
-4.33
-6.79
-7.77
-7.15
-5.43
-3.59
-2.83
-3.93
-7.04
-11.57
-16.50
-20.82
-23.98
-26.12
-27.92
-30.27
-33.74
-38.19
-42.79
-46.27
-47.40
-45.52
-40.74
-33.82
-25.81
-17.68
-10.07
-3.31
2.47
7.27
11.38
15.49
20.66
27.86
37.39
48.49
59.32
67.66
71.69
70.87
66.00
58.91
51.48
44.93
39.53
34.85
30.33
25.74
21.28
17.20
13.39
9.42
4.56
-1.72
-9.36
-17.38
-24.17
-28.22
-28.85
-26.53
-22.38
-17.81
-13.96
-11.48
-10.54
-11.02
-12.79
-15.72
-19.74
-24.13
-28.09
-30.93
-32.05
-30.54
-24.64
-11.64
11.55
46.72
94.20
150.16
206.31
251.65
276.11
274.48
248.11
203.92
151.01
100.77
61.24
35.14
19.77
9.05
-2.99
-19.78
-41.10
-63.74
-77.28
-71.88
-42.91
6.36
66.52
127.09
180.86
225.53
261.97
299.51
346.67
407.49
480.10
558.67
636.86
709.36
771.74
784.37
720.73
577.43
381.17
174.15
-9.35
-154.04
-260.24
-329.54
-375.15
-400.54
-407.30
-399.87
-387.66
-382.65
-394.04
-424.34
-468.18
-515.74
-549.85
-556.53
-530.53
-477.25
-409.66
-341.72
-282.83
-235.85
-199.18
-165.27
-127.80
-84.59
-37.93
7.73
48.45
81.74
105.73
117.58
115.95
99.99
69.75
26.51
-27.63
-90.18
-158.37
-228.79
-296.64
-354.31
-393.26
-406.71
-392.29
-353.27
-297.48
-234.56
-173.02
-118.09
-71.12
-30.93
4.70
37.85
70.30
103.96
141.05
183.87
234.04
290.86
349.87
402.81
440.17
455.37
448.44
426.10
398.57
374.86
358.55
346.47
331.40
306.72
270.31
225.54
178.04
131.71
87.70
45.25
3.61
-36.36
-72.12
-102.20
-122.86
-131.12
-127.98
-117.18
-102.72
-86.74
-69.44
-50.35
-29.64
-7.93
12.30
25.60
27.78
18.13
-0.68
-24.32
-49.21
-73.86
-99.06
-125.65
-157.61
-198.24
-248.17
-304.81
-362.68
-414.53
-452.50
-469.80
-449.61
-388.29
-297.59
-199.94
-116.61
-57.98
-23.16
-5.13
3.64
7.75
6.37
-1.97
-16.30
-33.21
-48.17
-58.26
-63.03
-63.78
-62.67
-63.09
-67.62
-75.13
-82.74
-87.04
-86.17
-80.15
-70.33
-58.59
-47.74
-39.70
-34.79
-32.24
-30.17
-26.96
-21.57
-13.22
-1.46
13.37
30.84
51.08
70.70
88.37
103.82
117.71
131.54
146.83
164.26
183.46
203.33
222.31
239.90
256.50
273.39
292.56
316.20
346.19
383.66
427.97
475.72
520.90
555.12
569.52
557.81
518.85
457.97
385.95
315.73
258.08
218.31
195.00
181.66
170.25
154.96
134.01
108.92
82.03
54.21
24.34
-9.49
-47.37
-85.79
-118.45
-139.38
-146.67
-144.00
-138.61
-136.86
-140.52
-145.50
-145.10
-134.37
-113.46
-87.55
-63.71
-46.61
-36.28
-29.68
-23.62
-18.91
-19.06
-27.93
-46.71
-73.05
-102.30
-129.55
-152.55
-171.08
-188.27
-205.90
-223.23
-237.64
-246.66
-249.79
-247.75
-243.70
-240.45
-243.46
-255.72
-277.23
-305.71
-338.19
-372.64
-406.94
-442.26
-480.20
-527.21
-587.03
-658.31
-734.01
-803.27
-855.44
-881.75
-882.04
-828.13
-711.08
-541.65
-347.28
-158.69
3.29
118.01
194.43
243.79
276.79
298.21
313.46
331.10
357.05
393.20
435.64
476.33
501.11
499.87
468.77
415.56
355.20
301.59
261.99
235.44
217.50
201.53
184.19
163.50
140.73
119.55
104.71
100.91
110.30
133.03
163.79
195.79
221.62
236.69
240.09
233.56
220.09
202.04
181.43
159.78
139.50
123.45
114.51
114.36
122.91
139.18
162.22
188.49
216.22
243.71
268.55
287.63
298.07
298.32
288.88
271.65
248.74
221.97
192.31
160.97
130.15
103.20
83.17
71.15
65.18
60.89
53.89
41.55
24.14
4.32
-14.57
-30.51
-43.55
-55.44
-68.23
-82.74
-98.40
-113.65
-127.03
-137.95
-147.10
-156.06
-166.63
-180.05
-196.51
-215.37
-235.60
-256.36
-277.38
-299.15
-322.77
-349.68
-381.29
-418.27
-460.14
-504.61
-547.71
-584.29
-609.31
-619.08
-612.23
-589.91
-555.17
-512.04
-464.48
-415.83
-368.62
-324.60
-284.85
-249.68
-218.73
-190.93
-164.89
-139.21
-112.86
-85.38
-56.98
-28.40
-0.57
25.66
49.83
71.91
92.27
111.54
130.49
149.94
170.44
191.99
213.80
234.31
251.60
264.01
270.85
272.59
270.85
267.78
265.46
265.23
267.47
271.61
276.44
280.68
283.54
285.06
286.00
287.71
291.68
299.23
310.82
325.41
340.22
350.75
352.02
340.19
314.39
277.35
234.91
194.14
161.13
139.44
129.66
130.19
138.30
150.89
164.50
175.41
179.89
174.98
159.47
134.44
102.92
68.79
35.70
5.98
-19.44
-40.32
-56.37
-66.73
-70.37
-66.95
-57.64
-45.35
-34.08
-27.62
-28.15
-35.42
-46.53
-57.14
-63.05
-61.80
-53.49
-40.44
-26.10
-13.82
-6.44
-6.22
-14.86
-32.65
-57.09
-81.83
-97.16
-92.51
-60.69
-2.06
74.36
153.25
218.27
257.94
269.13
256.98
231.51
203.17
179.41
163.62
156.18
156.32
163.67
178.22
199.49
225.33
251.67
273.66
287.41
291.46
287.06
277.55
266.53
256.23
246.48
235.01
218.56
194.46
161.90
122.14
77.96
32.56
-11.82
-54.55
-96.58
-139.85
-186.87
-240.09
-301.36
-370.80
-445.50
-519.00
-582.01
-625.02
-641.66
-631.29
-599.22
-554.27
-505.21
-457.55
-412.71
-369.08
-324.43
-277.14
-226.27
-170.54
-108.28
-38.61
36.60
111.37
176.73
223.65
246.57
245.89
227.69
201.20
175.07
154.88
142.12
135.08
130.48
124.53
113.39
93.07
60.12
13.23
-44.41
-104.08
-153.31
-180.06
-178.62
-153.28
-117.87
-90.71
-87.67
-116.56
-175.49
-255.10
-342.71
-426.28
-496.16
-545.74
-571.32
-572.59
-553.00
-519.41
-480.34
-443.43
-413.71
-392.71
-379.29
-370.94
-364.85
-358.53
-350.06
-338.31
-323.14
-305.62
-287.52
-270.68
-256.33
-244.67
-234.76
-225.02
-213.89
-200.32
-184.13
-165.93
-146.81
-127.85
-109.64
-92.09
-74.40
-55.47
-34.40
-10.99
14.10
39.37
63.13
84.13
102.21
118.54
135.29
154.86
178.96
207.89
240.51
274.76
308.52
340.40
370.23
398.89
427.86
458.70
492.66
530.47
571.80
614.53
654.08
683.99
697.54
690.18
661.30
614.70
556.92
494.62
432.08
370.14
307.79
244.76
183.61
129.76
89.44
66.80
61.88
70.63
85.84
100.69
111.26
117.27
120.59
123.25
126.09
128.79
131.01
131.57
130.40
128.79
128.62
130.76
134.16
136.11
133.35
123.47
102.75
69.12
23.47
-30.20
-86.76
-141.90
-193.26
-240.37
-283.84
-328.36
-378.39
-435.44
-496.90
-558.08
-614.06
-661.00
-696.39
-695.72
-642.21
-534.47
-389.71
-234.48
-91.84
26.24
117.68
185.94
235.28
268.72
285.72
285.60
269.99
241.31
203.36
160.72
117.54
78.03
41.87
6.60
-29.62
-66.29
-103.19
-139.26
-173.05
-203.13
-227.41
-244.36
-251.14
-243.23
-205.01
-133.74
-43.03
43.20
105.12
137.64
148.30
149.84
152.64
160.73
170.19
175.46
175.07
169.75
161.08
148.89
130.89
104.97
71.44
32.65
-5.75
-33.55
-42.95
-33.88
-14.01
5.73
17.34
18.64
11.95
2.30
-5.57
-9.89
-11.50
-11.68
-11.87
-10.41
-5.00
5.58
20.99
40.57
62.97
86.71
110.49
132.06
148.65
157.39
156.40
145.46
127.12
105.41
81.70
56.08
24.79
-18.30
-77.47
-151.56
-233.35
-309.66
-365.68
-391.10
-383.07
-346.30
-289.53
-221.02
-147.82
-78.46
-21.73
14.89
26.68
15.54
-9.43
-33.46
-40.64
-20.93
23.75
84.07
149.43
211.38
266.80
317.08
356.46
378.04
390.75
395.88
384.25
352.41
302.32
240.47
175.34
114.51
63.87
26.23
-0.69
-19.31
-30.09
-33.81
-32.71
-31.19
-35.53
-51.43
-82.85
-132.32
-197.23
-268.86
-335.89
-387.82
-418.03
-425.60
-414.01
-389.12
-357.60
-323.32
-286.59
-246.41
-202.62
-156.47
-110.20
-65.20
-21.08
24.22
74.50
133.90
204.22
283.11
363.48
435.27
488.79
517.93
522.32
507.56
482.51
455.35
430.61
408.37
386.14
361.25
332.32
299.93
265.82
231.24
195.98
158.83
118.28
74.23
28.44
-17.08
-59.42
-95.18
-121.47
-137.17
-142.74
-140.88
-134.44
-125.48
-118.03
-114.53
-114.89
-117.32
-120.54
-124.03
-130.48
-142.48
-161.26
-190.92
-232.66
-283.11
-335.59
-383.96
-423.40
-454.90
-480.78
-503.43
-531.32
-571.23
-624.05
-684.37
-743.45
-790.38
-819.98
-830.18
-784.45
-671.17
-510.08
-341.51
-199.51
-110.87
-59.50
-29.47
-10.72
1.77
8.15
7.33
2.79
1.89
11.17
35.12
70.37
111.68
154.50
191.03
216.18
230.16
237.25
242.15
248.95
256.51
262.77
266.34
263.80
253.25
236.06
216.25
198.12
185.60
179.09
177.74
180.23
183.32
183.94
180.50
173.33
163.93
154.72
147.11
141.97
139.40
137.92
135.63
131.22
124.78
117.93
113.39
114.01
122.56
141.52
172.53
215.63
268.36
325.17
378.09
418.60
440.29
440.99
423.18
392.48
355.08
315.43
275.22
233.85
189.90
142.72
93.20
43.85
-2.04
-41.57
-73.28
-97.72
-116.93
-133.22
-147.30
-157.97
-162.98
-161.12
-153.95
-145.66
-140.65
-140.59
-142.76
-141.12
-129.96
-107.61
-78.25
-50.19
-31.95
-28.05
-37.12
-53.07
-68.24
-76.68
-75.72
-66.00
-50.07
-31.10
-12.23
3.78
14.47
18.19
14.68
5.48
-6.57
-18.25
-27.05
-31.82
-32.55
-29.94
-24.82
-18.23
-11.51
-6.06
-3.09
-2.71
-3.67
-3.43
0.77
10.71
26.03
44.12
61.23
73.91
80.55
81.91
80.73
80.44
83.74
91.56
102.74
114.84
125.06
131.33
132.80
129.89
123.99
116.96
110.68
106.56
105.27
106.34
108.23
108.61
104.87
95.07
78.52
56.47
31.66
7.68
-12.54
-27.93
-39.70
-50.70
-63.48
-78.60
-93.82
-105.06
-108.48
-102.77
-90.17
-75.84
-66.30
-67.29
-82.41
-112.21
-153.91
-201.66
-247.48
-282.87
-300.73
-297.39
-273.17
-232.17
-180.81
-126.17
-74.63
-30.97
2.01
23.82
35.90
40.96
41.74
40.08
36.51
30.69
22.36
12.07
1.08
-9.26
-18.05
-25.17
-30.82
-34.98
-37.38
-37.44
-34.87
-29.69
-22.36
-13.48
-3.98
4.87
11.63
15.11
15.13
12.87
10.51
10.16
12.76
17.55
22.66
26.34
28.06
28.80
30.19
33.18
37.27
40.75
41.72
39.44
34.89
30.20
27.50
27.67
29.86
31.95
31.65
27.60
19.94
10.34
1.10
-5.67
-8.93
-8.89
-6.72
-3.99
-2.01
-1.58
-2.93
-6.01
-10.70
-16.86
-24.15
-31.80
-38.66
-43.38
-44.90
-42.83
-37.68
-30.74
-23.71
-18.24
-15.33
-15.03
-16.35
-17.70
-17.47
-14.74
-9.55
-2.82
4.09
10.09
14.60
17.55
18.98
18.69
16.31
11.69
5.47
-0.89
-5.48
-6.82
-4.65
-0.15
4.49
7.17
6.69
3.40
-1.14
-4.74
-5.56
-2.65
3.74
12.33
21.21
28.29
31.92
31.25
26.45
18.64
9.34
0.01
-8.47
-15.68
-21.67
-26.57
-30.56
-33.75
-36.08
-37.26
-36.66
-33.50
-27.10
-17.61
-6.15
5.33
14.75
20.93
23.97
25.27
26.55
28.96
32.44
35.86
37.71
36.88
33.29
27.82
21.94
16.91
13.30
10.79
8.57
5.90
2.56
-0.94
-3.66
-4.71
-3.85
-1.57
0.94
2.38
1.91
-0.54
-4.14
-7.79
-10.52
-12.05
-12.70
-13.07
-13.71
-14.76
-16.24
-18.03
-20.08
-22.14
-23.56
-23.23
-20.06
-13.66
-4.67
5.21
14.16
20.98
25.53
28.32
29.69
29.42
26.78
21.40
13.91
6.02
-0.19
-3.32
-3.37
-1.74
-0.34
-0.60
-2.71
-5.74
-8.21
-9.01
-7.88
-5.42
-2.81
-1.03
-0.64
-1.52
-3.22
-5.22
-7.20
-9.08
-10.76
-12.06
-12.70
-12.74
-12.68
-13.32
-15.26
-18.12
-20.47
-20.20
-15.67
-6.60
5.45
17.80
27.82
34.20
37.32
38.58
39.39
40.09
39.99
38.08
34.03
28.80
24.25
22.28
23.61
27.46
31.90
34.94
35.57
34.24
32.52
32.06
33.88
37.72
42.45
46.54
48.84
48.88
46.80
43.02
37.75
31.01
22.84
13.88
5.56
-0.25
-1.90
0.99
7.22
14.34
19.78
21.99
21.09
18.64
16.77
17.28
20.95
27.48
35.57
43.26
48.21
48.23
42.16
30.41
15.34
0.49
-10.53
-15.70
-15.33
-11.94
-9.12
-9.76
-15.03
-23.91
-34.09
-43.10
-49.74
-54.53
-59.21
-65.88
-75.89
-89.77
-107.30
-128.15
-151.99
-178.44
-206.64
-234.75
-260.07
-279.45
-290.16
-290.87
-282.48
-268.14
-252.53
-240.57
-235.96
-240.31
-252.63
-269.70
-286.91
-299.49
-303.74
-297.89
-282.68
-261.23
-238.32
-218.92
-206.82
-203.55
-208.19
-218.03
-229.61
-239.54
-244.90
-243.28
-232.84
-212.52
-182.70
-145.28
-103.54
-61.70
-24.01
6.18
27.00
38.40
42.02
40.48
36.76
33.25
31.25
30.81
31.11
31.00
29.76
27.43
24.88
23.38
24.01
27.07
32.12
38.42
45.52
53.98
65.42
82.16
106.60
140.59
185.03
239.67
302.65
369.78
434.42
488.19
523.03
534.00
521.29
490.40
450.15
409.24
373.25
343.43
317.77
293.34
268.59
244.06
221.55
202.58
187.16
173.83
160.65
146.41
131.28
116.69
104.26
94.83
87.84
81.59
74.09
64.01
51.41
37.71
25.18
15.92
11.00
10.10
11.59
13.33
13.52
11.44
7.58
3.32
0.08
-1.33
-1.02
0.42
1.73
2.38
2.60
3.06
4.39
6.78
9.79
12.63
14.79
15.60
15.18
14.07
12.83
11.74
10.77
9.56
7.67
5.60
2.77
-0.21
-2.49
-3.19
-1.87
1.31
5.52
9.52
14.20
16.93
18.07
18.81
20.67
24.82
31.38
39.18
46.09
54.10
57.77
57.84
56.66
57.09
61.06
68.43
76.85
82.64
88.81
86.01
73.44
51.87
23.68
-7.04
-34.60
-52.40
-54.79
-30.29
11.08
64.75
124.42
184.72
243.17
300.28
357.42
360.11
369.55
367.63
346.60
303.65
243.78
178.98
123.78
89.18
77.92
92.32
111.81
125.16
126.04
114.18
93.23
66.91
36.47
0.59
-35.71
-78.43
-123.21
-163.31
-192.71
-208.67
-212.88
-210.23
-206.31
-200.72
-198.44
-197.56
-195.29
-189.94
-181.71
-172.60
-165.03
-160.60
-157.24
-155.48
-153.07
-148.20
-140.49
-130.95
-121.52
-113.97
-109.11
-105.86
-103.69
-101.12
-97.10
-91.41
-84.53
-77.34
-70.75
-65.49
-62.00
-60.43
-60.65
-62.25
-64.68
-67.34
-69.78
-71.68
-72.89
-73.34
-72.88
-71.45
-69.03
-65.85
-62.32
-58.94
-56.14
-54.09
-52.68
-51.55
-50.30
-48.65
-46.57
-44.38
-42.65
-42.06
-43.02
-45.49
-48.77
-51.65
-52.88
-51.86
-49.21
-46.76
-46.66
-50.10
-56.31
-62.54
-65.47
-63.11
-55.98
-46.59
-37.45
-29.37
-21.15
-11.15
0.75
12.45
21.06
25.48
28.20
34.41
48.63
71.13
96.84
117.86
127.81
125.02
112.52
95.04
75.48
53.60
27.73
-1.92
-31.13
-52.42
-58.45
-45.94
-17.91
17.49
50.43
73.45
83.83
83.46
76.84
68.52
61.28
55.51
49.92
42.90
33.72
23.03
12.44
3.71
-2.20
-5.60
-7.88
-10.71
-15.09
-20.74
-26.20
-29.65
-29.92
-27.22
-23.07
-19.50
-18.05
-19.08
-21.91
-25.58
-29.67
-34.54
-41.13
-50.06
-61.00
-72.55
-82.74
-89.97
-93.65
-94.50
-94.01
-93.70
-94.39
-95.88
-97.27
-97.58
-96.43
-94.45
-93.11
-94.07
-98.39
-106.01
-115.84
-126.30
-136.14
-144.89
-152.69
-159.67
-165.31
-168.47
-167.92
-163.07
-154.29
-142.42
-128.03
-110.78
-89.78
-64.51
-35.96
-6.74
19.44
39.41
52.26
59.79
65.38
71.60
78.10
81.10
75.19
56.53
25.58
-12.06
-47.48
-72.17
-81.61
-76.57
-61.88
-43.58
-26.16
-11.70
-0.55
6.89
8.95
2.87
-13.87
-41.88
-78.67
-118.65
-154.50
-179.20
-188.24
-180.50
-158.17
-125.34
-86.29
-44.13
-0.32
44.74
90.73
136.80
181.56
223.96
263.98
303.19
344.21
389.62
440.42
494.92
548.86
596.54
632.70
654.02
659.78
651.51
631.89
603.77
569.68
531.86
492.53
453.97
418.10
385.83
356.82
329.49
301.80
271.99
239.25
203.86
166.88
129.56
92.68
56.26
19.61
-18.20
-58.08
-100.61
-145.87
-193.21
-240.87
-285.87
-324.24
-352.09
-366.92
-368.87
-360.76
-347.11
-332.25
-318.73
-306.86
-295.41
-283.23
-270.32
-258.05
-248.07
-241.06
-235.96
-230.44
-222.24
-210.56
-196.72
-183.89
-175.69
-174.66
-181.28
-193.85
-209.24
-224.16
-236.07
-243.70
-246.74
-245.33
-239.61
-229.57
-215.20
-196.68
-174.57
-149.47
-121.70
-91.12
-57.26
-20.01
19.76
59.78
96.71
126.89
147.45
157.09
156.43
147.80
134.57
120.46
108.57
100.81
97.69
98.31
100.92
103.49
104.42
102.94
99.10
93.56
87.13
80.57
74.40
68.98
64.44
60.63
56.95
52.38
45.80
36.48
24.58
11.33
-1.08
-10.47
-15.47
-16.75
-16.76
-19.46
-28.92
-48.07
-77.06
-112.33
-146.91
-172.12
-180.35
-167.80
-135.92
-91.09
-42.58
0.57
32.27
50.98
59.52
63.30
67.93
77.08
91.52
109.21
126.40
138.94
143.72
139.58
127.57
110.24
90.58
70.91
52.65
36.27
22.42
12.29
7.88
10.82
21.11
36.19
51.38
61.72
64.06
58.41
47.49
35.26
24.93
18.03
14.35
12.57
10.80
6.68
-2.27
-18.22
-42.07
-72.88
-108.02
-143.98
-177.55
-206.36
-228.70
-243.00
-247.57
-241.01
-223.12
-195.82
-163.11
-130.27
-102.19
-81.82
-69.40
-62.66
-58.04
-52.32
-44.02
-33.83
-23.96
-16.75
-13.30
-12.89
-13.55
-13.33
-11.44
-8.63
-6.39
-5.74
-6.62
-8.02
-8.89
-8.94
-8.83
-9.55
-11.60
-14.43
-16.63
-16.72
-13.94
-8.63
-1.95
4.73
10.37
14.59
17.49
19.35
20.36
20.57
20.04
19.07
18.22
18.19
19.44
21.90
24.97
27.78
29.80
31.01
31.83
32.60
33.24
33.21
31.93
29.22
25.49
21.52
17.94
14.80
11.72
8.20
4.12
-0.11
-3.89
-6.74
-8.60
-9.73
-10.45
-10.88
-10.94
-10.50
-9.62
-8.50
-7.42
-6.47
-5.52
-4.27
-2.56
-0.52
1.46
2.85
3.23
2.46
0.68
-1.74
-4.33
-6.48
-7.59
-7.05
-4.55
-0.15
5.58
11.80
17.61
22.34
25.71
27.69
28.38
27.88
26.23
23.62
20.30
16.57
12.60
8.38
3.88
-0.80
-5.13
-8.32
-9.57
-8.53
-5.49
-1.36
2.79
6.04
8.05
8.98
9.21
9.06
8.63
7.86
6.74
5.48
4.45
4.02
4.31
5.01
5.55
5.28
3.92
1.59
-1.15
-3.63
-5.34
-6.08
-6.05
-5.56
-4.97
-4.54
-4.46
-4.82
-5.60
-6.66
-7.73
-8.53
-8.92
-9.07
-9.35
-10.14
-11.51
-13.07
-14.06
-13.71
-11.71
-8.39
-4.59
-1.23
1.15
2.61
3.68
4.90
6.62
8.71
10.81
12.48
13.44
13.66
13.23
12.39
11.37
10.46
9.84
9.61
9.71
9.98
10.32
10.74
11.41
12.43
13.75
14.99
15.57
15.05
13.24
10.42
7.17
4.19
1.95
0.60
-0.10
-0.58
-1.20
-2.26
-3.84
-5.95
-8.53
-11.46
-14.47
-17.07
-18.69
-18.85
-17.40
-14.62
-11.14
-7.67
-4.72
-2.48
-0.82
0.45
1.48
2.31
2.97
3.49
4.00
4.60
5.29
6.05
6.80
7.54
8.42
9.62
11.24
13.13
14.86
15.90
15.85
14.66
12.69
10.55
8.82
7.75
7.21
6.84
6.36
5.73
5.15
4.90
5.06
5.44
5.70
5.46
4.54
2.86
0.52
-2.30
-5.29
-7.96
-9.81
-10.39
-9.64
-7.84
-5.55
-3.30
-1.29
0.53
2.38
4.33
6.24
7.78
8.66
8.81
8.39
7.73
7.14
6.83
6.85
7.12
7.42
7.42
6.87
5.63
3.90
2.11
0.76
0.18
0.38
1.16
2.30
3.83
5.85
8.40
11.16
13.50
14.72
14.49
13.13
11.41
10.21
9.89
10.23
10.58
10.30
9.17
7.36
5.30
3.36
1.74
0.51
-0.22
-0.32
0.33
1.76
3.75
5.89
7.75
9.03
9.67
9.91
10.08
10.44
11.09
11.84
12.43
12.67
12.61
12.52
12.71
13.33
14.22
15.02
15.39
15.23
14.73
14.23
13.95
13.83
13.53
12.63
10.92
8.47
5.70
3.13
1.18
0.01
-0.53
-0.79
-1.19
-1.99
-3.33
-5.11
-7.16
-9.33
-11.44
-13.37
-14.90
-15.78
-15.71
-14.59
-12.54
-9.93
-7.16
-4.45
-1.79
1.06
4.18
7.33
9.91
11.24
10.95
9.26
6.99
5.16
4.66
5.80
8.27
11.38
14.33
16.47
17.44
17.13
15.51
12.81
9.46
6.10
3.44
1.89
1.38
1.39
1.23
0.38
-1.20
-3.17
-5.06
-6.48
-7.36
-7.76
-7.83
-7.64
-7.21
-6.57
-5.80
-5.04
-4.29
-3.61
-2.94
-2.25
-1.52
-0.75
0.08
0.96
1.72
2.13
1.89
0.90
-0.71
-2.57
-4.24
-5.45
-6.12
-6.34
-6.17
-5.60
-4.58
-3.18
-1.69
-0.59
-0.40
-1.30
-3.09
-5.14
-6.72
-7.33
-6.95
-6.07
-5.36
-5.40
-6.31
-7.75
-9.05
-9.60
-9.07
-7.59
-5.65
-3.79
-2.37
-1.41
-0.73
-0.12
0.48
0.96
1.20
1.15
0.97
0.85
0.96
1.29
1.78
2.41
3.19
4.23
5.50
6.78
7.75
8.14
7.96
7.51
7.22
7.32
7.77
8.28
8.54
8.53
8.41
8.47
8.74
9.00
8.83
7.94
6.41
4.64
3.16
2.22
1.75
1.31
0.55
-0.63
-1.97
-3.09
-3.74
-3.93
-3.89
-3.77
-3.54
-2.99
-1.99
-0.69
0.47
0.98
0.63
-0.28
-1.06
-0.97
0.39
2.85
5.83
8.66
10.93
12.61
13.93
15.08
16.08
16.70
16.71
15.94
14.49
12.52
10.19
7.60
4.80
1.94
-0.67
-2.68
-3.86
-4.24
-4.22
-4.35
-5.07
-6.54
-8.51
-10.52
-12.10
-12.99
-13.12
-12.62
-11.61
-10.08
-8.00
-5.33
-2.28
0.81
3.41
5.09
5.64
5.21
4.23
3.19
2.47
2.12
2.02
1.93
1.69
1.31
0.89
0.60
0.50
0.57
0.74
0.90
1.01
1.01
0.83
0.39
-0.41
-1.57
-3.00
-4.44
-5.64
-6.39
-6.66
-6.61
-6.65
-7.19
-8.54
-10.71
-13.36
-15.90
-17.71
-18.40
-17.91
-16.49
-14.50
-12.35
-10.34
-8.71
-7.67
-7.33
-7.71
-8.75
-10.30
-12.18
-14.24
-16.37
-18.62
-21.12
-24.01
-27.36
-31.08
-34.92
-38.60
-41.95
-45.04
-48.09
-51.35
-54.64
-57.26
-58.03
-55.84
-50.20
-41.64
-31.51
-21.42
-12.58
-5.36
0.54
5.77
10.83
15.96
21.22
26.70
32.66
39.26
46.39
53.32
58.99
62.37
62.95
61.06
57.66
53.85
50.33
47.09
43.56
39.05
33.21
26.31
19.19
12.79
7.80
4.29
1.84
-0.25
-2.56
-5.36
-8.64
-12.19
-15.76
-19.06
-21.81
-23.60
-24.05
-22.87
-20.11
-16.20
-11.81
-7.54
-3.65
0.11
4.30
9.50
15.85
22.99
30.21
36.78
42.21
46.27
48.78
49.41
47.82
43.88
38.11
31.64
25.90
21.97
20.14
19.87
20.25
20.64
20.96
21.67
23.20
25.53
28.06
29.90
30.40
29.54
27.89
26.30
25.46
25.53
26.17
26.70
26.41
24.83
21.83
17.63
12.76
7.97
3.93
1.02
-0.83
-2.34
-4.46
-8.05
-13.35
-19.78
-26.03
-30.68
-32.76
-32.11
-29.46
-25.86
-22.32
-19.35
-17.03
-15.17
-13.63
-12.39
-11.41
-10.56
-9.60
-8.39
-7.13
-6.38
-6.82
-8.82
-12.16
-15.93
-19.01
-20.45
-19.92
-17.77
-14.76
-11.78
-9.52
-8.34
-8.23
-8.98
-10.29
-11.84
-13.45
-15.04
-16.78
-18.89
-21.61
-25.05
-29.15
-33.66
-38.29
-42.88
-47.41
-52.14
-57.46
-63.79
-71.47
-80.56
-90.87
-101.92
-113.06
-123.55
-132.60
-139.43
-143.53
-144.84
-143.95
-142.24
-141.42
-142.93
-147.24
-153.51
-159.82
-163.88
-163.80
-158.41
-147.43
-131.13
-110.16
-85.49
-58.49
-30.91
-4.46
19.69
41.54
62.42
84.56
109.95
139.06
169.92
198.17
218.28
225.08
215.60
189.76
150.18
100.90
45.98
-11.16
-67.93
-121.69
-169.23
-206.69
-230.22
-237.13
-226.79
-201.08
-163.83
-119.88
-73.71
-28.51
14.14
53.71
89.89
121.92
148.45
168.17
180.55
186.44
187.79
186.81
184.92
182.22
177.79
170.63
160.60
148.85
137.30
127.70
120.60
115.33
110.30
104.08
96.02
86.43
76.21
66.23
57.11
49.24
43.10
39.37
38.90
42.24
49.46
60.03
72.90
86.82
100.41
112.28
121.02
125.46
125.00
120.04
111.99
103.02
95.32
90.38
88.51
88.80
89.64
89.55
87.73
84.29
79.96
75.44
70.90
65.89
59.71
52.07
43.60
35.76
30.23
28.03
28.92
31.43
33.61
33.90
31.72
27.47
21.99
16.04
10.03
4.15
-1.38
-6.22
-10.18
-13.50
-16.92
-21.40
-27.42
-34.48
-41.04
-45.14
-45.34
-41.53
-35.03
-28.02
-22.54
-19.63
-19.02
-19.67
-20.38
-20.45
-19.72
-18.34
-16.44
-14.05
-11.33
-8.78
-7.16
-7.07
-8.47
-10.53
-12.03
-12.18
-11.24
-10.72
-12.68
-18.70
-29.02
-42.49
-57.16
-71.44
-84.88
-98.24
-112.76
-128.97
-145.73
-160.13
-168.44
-167.83
-158.09
-142.31
-126.08
-115.44
-114.57
-124.22
-141.75
-162.53
-181.97
-196.96
-206.31
-209.89
-207.88
-200.29
-187.37
-169.94
-149.31
-126.55
-101.85
-74.45
-43.37
-8.87
27.02
60.41
86.87
103.30
109.50
108.32
104.36
101.96
103.41
108.77
116.88
126.95
139.32
154.85
173.11
190.73
201.48
197.98
174.89
131.31
71.23
2.09
-67.46
-129.47
-177.59
-207.55
-217.99
-211.34
-194.10
-175.57
-164.94
-168.09
-185.49
-212.53
-241.98
-267.41
-285.20
-294.79
-297.26
-293.37
-282.90
-265.08
-239.86
-208.85
-175.27
-142.61
-112.95
-86.16
-59.79
-30.45
4.49
45.54
90.40
134.47
172.17
199.03
213.16
216.07
211.84
205.39
200.27
197.37
195.09
190.68
182.17
169.48
154.51
140.05
128.43
120.57
115.83
112.66
109.41
105.02
99.24
92.47
85.34
78.29
71.32
64.12
56.30
47.73
38.72
29.94
22.18
16.06
11.74
8.96
7.13
5.66
4.32
3.37
3.42
4.99
8.14
12.16
15.93
18.27
18.56
16.97
14.28
11.50
9.47
8.69
9.24
11.02
13.73
16.95
20.16
22.76
24.28
24.53
23.80
22.59
21.53
21.08
21.36
22.20
23.17
23.90
24.07
23.59
22.54
21.16
19.77
18.62
17.91
17.62
17.56
17.36
16.69
15.30
13.26
10.82
8.32
6.04
3.96
1.90
-0.45
-3.25
-6.43
-9.69
-12.53
-14.58
-15.58
-15.51
-14.40
-12.31
-9.27
-5.39
-1.02
3.38
7.21
10.10
11.97
13.05
13.72
14.22
14.68
14.97
15.03
14.81
14.38
13.87
13.31
12.73
12.10
11.44
10.74
9.97
8.99
7.57
5.52
2.74
-0.62
-4.27
-7.85
-11.12
-13.95
-16.47
-18.86
-21.28
-23.78
-26.19
-28.18
-29.30
-29.20
-27.66
-24.78
-20.88
-16.38
-11.77
-7.42
-3.62
-0.46
2.09
4.18
6.02
7.72
9.35
10.79
11.96
12.79
13.36
13.84
14.39
15.10
15.88
16.61
17.10
17.30
17.18
16.74
15.96
14.70
12.85
10.33
7.24
3.87
0.63
-2.06
-3.94
-5.05
-5.73
-6.47
-7.75
-9.72
-12.22
-14.76
-16.76
-17.73
-17.44
-16.02
-13.78
-11.20
-8.66
-6.39
-4.38
-2.46
-0.43
1.85
4.24
6.54
8.45
9.77
10.50
10.76
10.83
10.85
10.97
11.16
11.39
11.63
11.85
12.04
12.05
11.72
10.78
9.12
6.76
3.92
0.94
-1.80
-4.05
-5.67
-6.65
-7.08
-7.02
-6.57
-5.82
-4.90
-3.94
-3.06
-2.37
-2.00
-2.12
-2.83
-4.17
-6.05
-8.21
-10.41
-12.42
-14.17
-15.62
-16.70
-17.21
-16.81
-15.32
-12.78
-9.67
-6.66
-4.39
-3.19
-2.94
-3.23
-3.54
-3.58
-3.29
-2.84
-2.43
-2.18
-2.11
-2.24
-2.66
-3.53
-4.98
-6.96
-9.30
-11.74
-14.14
-16.57
-19.28
-22.51
-26.24
-30.11
-33.43
-35.60
-36.35
-36.05
-35.74
-36.66
-39.66
-44.44
-49.44
-52.14
-50.06
-41.88
-28.08
-10.72
7.44
24.18
38.77
52.08
65.91
82.15
101.87
124.88
149.44
172.38
189.35
195.81
188.45
166.60
133.09
93.89
56.53
27.78
11.76
9.10
17.35
32.18
48.84
63.44
73.51
78.28
78.18
74.16
66.77
55.85
40.97
22.57
2.81
-14.80
-27.02
-32.95
-35.01
-38.06
-46.82
-63.09
-84.60
-105.95
-121.45
-127.72
-124.89
-115.87
-104.33
-93.04
-82.96
-73.86
-65.20
-56.89
-49.47
-43.73
-40.17
-38.66
-38.44
-38.35
-37.29
-34.60
-30.36
-25.25
-20.26
-16.28
-13.76
-12.62
-12.31
-12.12
-11.50
-10.31
-8.83
-7.54
-6.85
-6.79
-7.02
-7.02
-6.42
-5.23
-3.82
-2.76
-2.42
-2.91
-3.98
-5.23
-6.32
-7.09
-7.68
-8.31
-9.28
-10.71
-12.55
-14.43
-15.86
-16.31
-15.38
-12.96
-9.21
-4.66
-0.02
3.98
6.84
8.37
8.72
8.24
7.31
6.23
5.17
4.28
3.74
3.80
4.70
6.45
8.81
11.27
13.35
14.75
15.50
15.88
16.13
16.40
16.51
16.16
15.07
13.18
10.67
7.94
5.38
3.22
1.48
-0.03
-1.56
-3.29
-5.26
-7.37
-9.48
-11.43
-13.19
-14.70
-15.99
-16.96
-17.44
-17.28
-16.35
-14.73
-12.58
-10.19
-7.75
-5.40
-3.13
-0.91
1.25
3.30
5.05
6.37
7.16
7.52
7.70
8.00
8.62
9.45
10.12
10.11
9.06
6.98
4.27
1.64
-0.33
-1.34
-1.62
-1.58
-1.73
-2.31
-3.31
-4.57
-5.89
-7.23
-8.64
-10.23
-11.98
-13.80
-15.47
-16.84
-17.92
-18.88
-19.97
-21.33
-22.89
-24.32
-25.11
-24.81
-23.14
-20.26
-16.57
-12.68
-9.13
-6.29
-4.22
-2.76
-1.61
-0.45
0.85
2.32
3.81
5.21
6.47
7.66
8.92
10.33
11.90
13.48
14.89
15.99
16.66
16.87
16.59
15.89
14.75
13.31
11.66
9.92
8.20
6.53
5.01
3.70
2.70
2.06
1.74
1.55
1.22
0.51
-0.73
-2.35
-4.00
-5.13
-5.25
-4.03
-1.44
2.13
6.13
9.90
12.91
14.75
15.27
14.53
12.78
10.42
7.84
5.42
3.27
1.35
-0.64
-2.95
-5.65
-8.50
-10.97
-12.58
-13.01
-12.41
-11.20
-9.90
-8.89
-8.27
-7.91
-7.65
-7.52
-7.69
-8.44
-9.95
-12.16
-14.79
-17.41
-19.66
-21.32
-22.49
-23.47
-24.69
-26.54
-29.17
-32.51
-36.10
-39.36
-41.56
-42.18
-40.92
-37.84
-33.27
-27.75
-21.96
-16.50
-11.91
-8.37
-5.84
-4.07
-2.83
-2.04
-1.78
-2.29
-3.47
-4.74
-4.97
-2.83
2.65
11.53
22.69
34.23
43.98
50.34
52.70
51.45
47.57
42.10
35.71
28.46
19.95
9.33
-4.38
-22.16
-44.68
-71.65
-101.05
-128.88
-149.53
-157.19
-147.76
-120.25
-76.98
-22.37
38.90
102.80
165.76
223.42
270.07
299.38
306.63
291.08
256.62
210.19
158.63
106.14
54.02
2.68
-45.73
-86.11
-111.82
-117.99
-104.40
-76.35
-42.55
-11.54
11.37
25.28
32.80
37.94
44.01
52.74
64.24
77.59
91.19
103.05
111.17
113.98
110.93
102.48
90.08
75.55
60.69
47.17
36.48
29.87
27.91
30.02
34.19
37.40
36.68
30.31
18.43
2.80
-14.01
-29.80
-43.32
-54.19
-62.50
-68.48
-72.38
-74.44
-75.13
-75.10
-75.08
-75.72
-77.44
-80.43
-84.65
-89.99
-96.32
-103.67
-112.12
-121.77
-132.44
-143.51
-154.00
-162.88
-169.48
-173.67
-175.75
-176.10
-174.82
-171.61
-165.72
-156.21
-141.92
-121.36
-92.78
-54.67
-6.78
48.88
107.55
162.83
208.57
241.16
260.78
271.07
277.47
284.68
295.06
307.81
319.87
327.13
325.94
314.13
291.82
261.79
229.40
201.35
183.41
177.80
181.43
186.34
182.20
160.10
116.14
53.13
-19.94
-90.62
-146.39
-177.93
-181.48
-159.72
-121.35
-78.59
-43.69
-24.77
-23.27
-33.91
-47.68
-56.27
-55.65
-47.36
-36.80
-30.17
-31.64
-42.30
-60.78
-84.77
-111.99
-140.27
-166.99
-188.75
-202.18
-205.18
-198.55
-186.42
-175.48
-172.98
-183.87
-208.40
-241.04
-271.68
-289.20
-285.85
-260.07
-216.81
-165.01
-113.63
-68.25
-29.50
5.96
42.99
84.87
132.09
182.19
230.53
271.55
300.13
312.82
308.50
288.41
254.13
208.64
156.44
103.38
55.84
19.25
-3.59
-13.80
-16.40
-21.29
-37.01
-67.33
-110.05
-158.96
-206.49
-246.27
-274.27
-288.63
-293.20
-291.35
-284.55
-272.92
-257.71
-242.50
-232.54
-232.90
-246.08
-276.53
-323.21
-378.84
-431.94
-471.37
-489.98
-486.02
-462.75
-397.30
-286.51
-146.81
-6.81
110.04
195.54
253.85
293.47
318.28
333.50
335.23
319.80
288.03
246.34
203.67
167.53
143.86
134.00
136.66
145.35
156.17
168.95
184.79
201.87
213.95
213.27
195.72
165.31
130.40
102.33
89.26
91.29
100.12
103.52
92.32
65.20
29.31
-5.60
-30.86
-42.51
-41.84
-33.35
-21.94
-11.04
-3.03
-0.61
-8.45
-31.31
-70.76
-122.52
-176.09
-217.79
-235.74
-224.50
-186.76
-131.86
-71.60
-15.99
29.41
63.66
89.01
108.99
126.96
145.68
167.30
193.68
225.89
263.20
302.23
336.80
358.98
361.61
341.08
299.18
242.79
181.40
123.55
74.29
34.41
2.05
-25.04
-47.97
-66.60
-80.81
-92.05
-103.83
-120.54
-144.81
-175.06
-204.51
-222.38
-217.45
-182.05
-115.31
-24.30
77.68
174.60
252.48
303.08
325.43
324.69
309.17
286.94
263.47
241.28
221.08
203.53
190.22
183.43
184.65
193.17
205.84
218.29
226.76
229.43
226.57
219.53
209.37
195.70
176.79
150.46
115.45
72.32
23.49
-27.71
-78.29
-126.36
-170.90
-210.91
-244.43
-268.57
-280.66
-279.83
-267.94
-249.17
-228.41
-209.34
-193.60
-181.18
-171.63
-164.96
-161.56
-161.43
-163.37
-165.26
-165.32
-163.59
-162.37
-164.97
-173.35
-186.26
-198.80
-204.27
-197.02
-175.23
-141.67
-102.46
-64.51
-32.77
-8.82
9.02
23.88
38.09
51.28
60.24
60.46
48.72
25.45
-4.71
-34.51
-57.06
-68.69
-69.90
-64.05
-54.86
-44.57
-33.79
-23.15
-14.83
-12.60
-19.84
-36.96
-60.13
-82.44
-96.96
-99.76
-91.43
-76.04
-58.84
-43.85
-32.75
-25.35
-20.69
-18.07
-17.15
-17.64
-18.84
-19.69
-19.11
-16.44
-11.81
-6.14
-0.88
2.63
3.46
1.56
-2.43
-7.41
-12.38
-16.78
-20.52
-23.88
-27.02
-29.97
-32.53
-34.44
-35.56
-35.80
-35.13
-33.39
-30.38
-26.03
-20.51
-14.24
-7.81
-1.73
3.75
8.65
13.17
17.40
21.26
24.48
26.83
28.23
28.86
29.08
29.21
29.30
29.11
28.28
26.55
23.97
20.99
18.18
16.04
14.74
14.09
13.71
13.22
12.38
11.03
9.13
6.58
3.32
-0.69
-5.27
-10.04
-14.43
-17.85
-19.83
-20.15
-18.92
-16.52
-13.45
-10.04
-6.44
-2.56
1.80
6.69
11.97
17.21
21.97
25.86
28.75
30.71
31.95
32.62
32.81
32.55
31.88
30.88
29.70
28.47
27.27
26.15
25.11
24.12
23.09
21.84
20.12
17.81
14.94
11.78
8.72
6.07
3.83
1.79
-0.39
-2.94
-5.87
-8.92
-11.82
-14.29
-16.21
-17.45
-17.84
-17.11
-15.01
-11.37
-6.30
-0.27
6.06
11.90
16.53
19.51
20.72
20.37
18.98
17.18
15.60
14.70
14.63
15.30
16.40
17.56
18.45
18.79
18.42
17.27
15.46
13.20
10.77
8.39
6.18
4.15
2.25
0.46
-1.17
-2.59
-3.79
-4.89
-6.03
-7.28
-8.56
-9.60
-10.10
-9.80
-8.63
-6.69
-4.14
-1.15
2.20
5.82
9.58
13.27
16.57
19.19
20.89
21.65
21.67
21.30
20.93
20.85
21.11
21.58
21.94
21.89
21.19
19.72
17.49
14.62
11.31
7.91
4.80
2.30
0.58
-0.48
-1.20
-2.05
-3.42
-5.49
-8.16
-11.14
-13.99
-16.29
-17.68
-17.88
-16.79
-14.44
-11.09
-7.17
-3.23
0.20
2.73
4.20
4.74
4.71
4.51
4.45
4.66
5.08
5.56
5.98
6.37
6.81
7.47
8.39
9.44
10.34
10.69
10.20
8.81
6.66
4.16
1.66
-0.58
-2.48
-4.22
-6.00
-8.05
-10.45
-13.11
-15.80
-18.18
-19.86
-20.54
-20.08
-18.58
-16.31
-13.62
-10.73
-7.70
-4.46
-0.91
2.92
6.77
10.29
13.11
15.06
16.14
16.55
16.53
16.37
16.31
16.49
16.99
17.68
18.37
18.81
18.77
18.24
17.38
16.46
15.73
15.25
14.92
14.50
13.74
12.46
10.62
8.27
5.51
2.47
-0.75
-4.10
-7.57
-11.13
-14.67
-17.97
-20.73
-22.69
-23.64
-23.53
-22.47
-20.58
-18.00
-14.87
-11.26
-7.35
-3.33
0.58
4.13
7.19
9.70
11.66
13.12
14.17
14.86
15.28
15.50
15.54
15.35
14.87
14.04
12.89
11.59
10.40
9.56
9.19
9.24
9.45
9.49
9.09
8.09
6.56
4.66
2.66
0.80
-0.75
-1.93
-2.79
-3.51
-4.31
-5.45
-7.17
-9.61
-12.75
-16.38
-20.07
-23.19
-25.14
-25.54
-24.38
-22.01
-18.98
-15.76
-12.63
-9.63
-6.70
-3.87
-1.27
0.96
2.72
4.08
5.20
6.23
7.26
8.24
9.10
9.77
10.21
10.44
10.49
10.46
10.46
10.59
10.89
11.30
11.60
11.54
10.92
9.71
8.07
6.24
4.45
2.88
1.55
0.46
-0.47
-1.29
-2.05
-2.81
-3.66
-4.76
-6.21
-8.03
-10.14
-12.28
-14.15
-15.51
-16.29
-16.55
-16.48
-16.19
-15.66
-14.74
-13.30
-11.29
-8.86
-6.24
-3.62
-1.18
1.03
2.91
4.37
5.33
5.79
5.92
6.01
6.35
7.08
8.18
9.40
10.46
11.17
11.50
11.58
11.64
11.80
12.07
12.31
12.23
11.57
10.23
8.31
6.07
3.86
1.96
0.40
-0.94
-2.31
-3.89
-5.67
-7.47
-9.02
-10.18
-11.00
-11.75
-12.74
-14.16
-15.82
-17.26
-17.90
-17.34
-15.52
-12.85
-9.89
-7.14
-4.84
-2.92
-1.19
0.52
2.20
3.69
4.80
5.43
5.55
5.23
4.51
3.46
2.22
1.07
0.37
0.42
1.29
2.70
4.14
5.09
5.24
4.65
3.60
2.44
1.35
0.32
-0.81
-2.09
-3.41
-4.52
-5.24
-5.59
-5.80
-6.23
-7.14
-8.54
-10.27
-12.13
-14.01
-15.86
-17.62
-19.06
-19.82
-19.58
-18.26
-16.13
-13.68
-11.39
-9.46
-7.74
-5.92
-3.79
-1.40
0.93
2.76
3.89
4.38
4.55
4.78
5.33
6.20
7.27
8.40
9.48
10.49
11.36
11.93
12.03
11.51
10.40
8.85
7.12
5.38
3.73
2.17
0.71
-0.53
-1.40
-1.86
-2.03
-2.27
-2.95
-4.30
-6.28
-8.58
-10.85
-12.86
-14.57
-16.11
-17.55
-18.82
-19.65
-19.71
-18.80
-16.91
-14.25
-11.13
-7.89
-4.76
-1.92
0.53
2.50
3.97
5.00
5.73
6.33
6.95
7.66
8.43
9.20
9.92
10.60
11.24
11.83
12.35
12.72
12.87
12.72
12.21
11.34
10.15
8.72
7.19
5.73
4.46
3.40
2.46
1.45
0.22
-1.33
-3.14
-5.05
-6.93
-8.73
-10.60
-12.75
-15.30
-18.12
-20.78
-22.69
-23.34
-22.45
-20.18
-16.96
-13.31
-9.73
-6.46
-3.59
-1.11
0.98
2.72
4.15
5.34
6.44
7.59
8.93
10.42
11.94
13.19
13.88
13.79
12.91
11.47
9.82
8.40
7.46
7.09
7.12
7.26
7.21
6.74
5.74
4.21
2.26
0.03
-2.37
-4.77
-7.10
-9.33
-11.49
-13.62
-15.79
-17.96
-19.99
-21.61
-22.48
-22.33
-21.04
-18.74
-15.71
-12.34
-8.96
-5.81
-2.95
-0.36
1.99
4.06
5.82
7.21
8.24
9.00
9.63
10.18
10.68
11.06
11.29
11.38
11.39
11.36
11.27
11.03
10.53
9.75
8.70
7.43
5.98
4.30
2.36
0.16
-2.18
-4.49
-6.63
-8.62
-10.56
-12.66
-15.06
-17.78
-20.67
-23.52
-26.06
-27.96
-28.98
-28.86
-27.53
-25.10
-21.82
-18.03
-14.09
-10.26
-6.75
-3.73
-1.34
0.34
1.26
1.58
1.59
1.65
2.06
2.99
4.42
6.21
8.14
10.07
11.96
13.78
15.54
17.15
18.42
19.13
19.17
18.57
17.49
16.18
14.81
13.34
11.61
9.28
6.08
1.87
-3.25
-8.92
-14.55
-19.49
-23.04
-24.70
-24.20
-21.68
-17.67
-13.01
-8.65
-5.35
-3.41
-2.54
-1.98
-0.82
1.53
5.13
9.41
13.59
16.92
19.00
19.75
19.27
17.61
14.66
10.38
4.88
-1.38
-7.78
-13.80
-19.42
-25.16
-31.87
-40.28
-50.55
-62.09
-73.73
-84.20
-92.70
-99.21
-104.45
-109.56
-115.71
-123.71
-133.90
-145.85
-158.17
-168.29
-172.80
-168.39
-153.04
-127.16
-93.58
-56.51
-19.63
15.49
49.61
84.56
121.19
157.88
190.61
214.70
227.16
228.25
221.31
211.01
201.25
193.73
188.10
183.14
178.13
173.44
170.11
168.90
169.41
170.29
169.89
167.16
161.99
154.92
146.56
137.10
126.38
114.29
101.14
87.61
74.41
61.82
49.48
36.67
22.77
7.68
-8.16
-23.87
-38.65
-51.91
-63.36
-72.78
-79.81
-83.99
-84.86
-82.26
-76.48
-68.44
-59.47
-50.95
-44.02
-39.18
-36.29
-34.68
-33.59
-32.44
-31.11
-29.78
-28.72
-28.09
-27.81
-27.64
-27.39
-26.97
-26.45
-25.93
-25.46
-25.03
-24.61
-24.27
-24.12
-24.30
-24.84
-25.60
-26.48
-27.45
-28.66
-30.36
-32.68
-35.48
-38.26
-40.34
-41.08
-40.11
-37.44
-33.35
-28.36
-23.05
-18.03
-13.77
-10.51
-8.21
-6.52
-5.02
-3.43
-1.74
-0.18
0.99
1.67
2.03
2.38
2.92
3.62
4.19
4.33
3.98
3.37
2.93
3.02
3.67
4.53
4.98
4.42
2.54
-0.56
-4.43
-8.47
-12.15
-15.21
-17.71
-19.95
-22.28
-24.89
-27.71
-30.45
-32.62
-33.77
-33.58
-31.90
-28.80
-24.49
-19.33
-13.72
-8.02
-2.59
2.31
6.50
9.88
12.43
14.21
15.36
16.03
16.41
16.70
17.13
17.87
19.04
20.62
22.36
23.88
24.78
24.79
23.83
22.01
19.55
16.59
13.22
9.53
5.68
1.96
-1.32
-4.00
-6.12
-8.04
-10.25
-13.17
-16.91
-21.19
-25.51
-29.22
-31.81
-32.96
-32.50
-30.41
-26.75
-21.68
-15.53
-8.82
-2.13
4.10
9.55
14.17
17.94
20.77
22.48
22.90
22.14
20.60
18.97
17.89
17.61
17.92
18.15
17.59
15.70
12.40
7.93
2.82
-2.22
-6.35
-8.49
-7.59
-2.87
5.79
17.44
30.02
40.83
47.33
48.18
43.77
36.05
27.74
21.01
16.64
13.76
10.61
5.72
-1.08
-8.31
-13.60
-14.78
-11.15
-3.77
5.02
12.69
17.61
19.71
20.32
21.48
25.02
31.82
41.56
52.70
62.63
67.87
64.66
50.17
23.98
-10.89
-48.11
-79.87
-99.53
-104.13
-95.22
-77.74
-57.70
-39.70
-25.80
-15.87
-8.80
-3.72
-0.46
0.83
0.20
-1.76
-4.09
-5.89
-6.79
-7.12
-7.77
-9.81
-13.91
-19.96
-27.00
-33.50
-37.89
-39.31
-37.96
-35.08
-32.38
-31.19
-31.88
-33.69
-35.14
-34.86
-32.31
-28.13
-23.84
-21.05
-20.77
-22.92
-26.44
-29.84
-31.81
-31.78
-30.15
-28.05
-26.97
-28.14
-32.04
-38.16
-45.10
-51.25
-55.50
-57.89
-59.63
-62.48
-67.88
-76.19
-86.47
-97.25
-107.20
-115.81
-123.64
-131.95
-142.35
-156.46
-175.82
-201.55
-233.68
-270.22
-306.72
-336.87
-354.14
-354.04
-335.65
-301.73
-257.49
-208.52
-159.18
-112.17
-68.89
-30.13
3.40
31.40
54.56
74.75
95.01
118.86
149.35
187.91
233.41
281.52
325.58
358.76
376.71
379.77
372.87
363.18
356.53
354.81
355.57
354.19
347.10
333.64
316.08
297.53
279.77
262.54
244.52
224.98
204.91
186.48
171.56
160.46
151.56
142.20
130.35
115.58
99.16
83.29
69.83
59.61
52.26
46.92
42.84
39.91
38.30
37.68
36.61
32.41
21.81
2.36
-26.41
-62.74
-103.02
-143.35
-180.61
-213.05
-239.97
-260.90
-275.23
-282.18
-281.54
-274.31
-262.87
-250.65
-241.11
-237.02
-239.60
-247.92
-258.77
-267.04
-266.89
-253.40
-224.44
-181.43
-129.07
-73.76
-21.56
23.54
60.10
88.93
112.27
133.05
154.21
177.80
204.27
231.83
256.50
272.88
275.73
261.86
231.30
187.87
138.43
91.34
54.27
32.21
26.27
33.67
49.14
67.02
83.42
97.16
109.25
121.13
132.66
141.29
142.95
134.07
113.63
84.34
51.70
21.99
-0.09
-12.85
-17.34
-16.10
-11.36
-4.28
4.83
15.65
27.14
37.84
46.34
52.20
56.08
59.61
64.66
72.88
85.37
102.42
123.27
146.10
168.46
188.00
203.30
214.06
220.59
222.82
219.53
208.53
187.88
157.63
120.36
80.54
42.40
8.01
-23.67
-55.98
-92.27
-133.62
-177.74
-219.65
-253.74
-275.95
-285.29
-283.72
-275.04
-263.28
-251.62
-242.05
-235.85
-234.19
-238.13
-248.25
-263.95
-283.05
-302.17
-317.91
-328.28
-333.49
-335.93
-338.81
-344.73
-354.27
-365.63
-375.41
-379.99
-376.83
-365.19
-345.94
-320.87
-291.82
-260.12
-226.48
-191.23
-154.59
-117.26
-80.55
-46.32
-16.39
8.43
29.08
48.40
70.35
98.56
135.13
180.01
231.72
288.14
347.54
408.43
468.75
524.48
569.00
593.87
591.10
556.24
490.96
404.05
309.65
223.35
157.34
116.96
99.92
98.72
104.71
111.44
115.87
117.24
115.01
107.49
92.16
67.44
34.39
-2.84
-38.06
-65.33
-81.16
-85.54
-81.39
-73.29
-65.62
-61.37
-61.45
-65.04
-70.39
-75.77
-80.08
-82.81
-83.84
-83.05
-80.34
-75.79
-70.05
-64.27
-60.04
-58.84
-61.53
-68.00
-76.99
-86.44
-93.90
-97.44
-96.20
-90.69
-82.59
-73.92
-66.16
-59.61
-53.35
-45.90
-36.22
-24.39
-11.59
0.41
10.16
16.93
20.73
21.89
20.76
17.65
13.20
8.69
5.77
6.00
10.01
17.19
25.81
33.74
39.15
41.00
39.19
34.35
27.66
20.59
14.62
10.72
9.04
8.71
8.17
5.82
0.87
-6.33
-14.36
-21.45
-26.21
-28.12
-27.61
-25.72
-23.65
-22.40
-22.55
-24.22
-27.16
-31.04
-35.78
-42.03
-51.46
-66.64
-90.13
-123.18
-164.28
-208.74
-249.33
-278.28
-289.76
-281.83
-256.88
-220.43
-179.03
-137.84
-99.44
-63.86
-29.60
5.28
42.33
82.40
125.28
169.45
211.84
248.07
273.46
284.20
278.41
256.65
221.68
177.78
130.22
84.90
47.76
24.01
16.90
26.65
50.20
82.02
115.18
142.73
158.75
159.17
143.15
114.66
82.63
59.02
54.61
74.05
113.22
160.65
202.64
229.48
239.17
236.68
229.57
222.95
216.95
207.88
191.94
168.49
140.90
114.35
92.29
73.89
53.72
24.30
-19.93
-79.17
-147.17
-212.63
-263.41
-290.96
-293.02
-273.44
-239.10
-196.09
-147.59
-94.51
-38.22
16.84
62.97
91.88
98.54
83.81
53.88
16.64
-22.67
-63.84
-110.39
-165.85
-229.33
-293.84
-348.04
-380.86
-386.31
-365.84
-327.14
-280.16
-232.83
-188.27
-145.10
-99.87
-49.71
6.29
67.40
132.24
199.25
266.00
328.17
379.38
412.51
422.05
406.46
369.07
316.82
257.88
199.09
144.35
94.59
48.88
6.24
-33.24
-68.12
-96.58
-117.49
-131.10
-138.78
-141.92
-140.82
-134.33
-120.97
-100.65
-75.96
-51.77
-33.40
-23.97
-22.79
-25.73
-27.32
-23.58
-13.62
0.18
13.82
23.47
27.05
24.74
18.29
9.97
1.52
-6.30
-13.66
-21.16
-29.11
-37.49
-45.70
-53.04
-58.85
-62.75
-64.63
-64.74
-63.57
-61.67
-59.38
-56.42
-51.99
-44.89
-34.28
-20.31
-4.40
10.98
23.34
31.21
34.92
36.32
37.81
41.09
46.31
52.27
57.51
61.46
65.19
71.04
81.38
96.85
115.81
134.58
149.34
157.89
160.56
159.61
157.63
156.06
154.80
153.00
150.18
147.10
145.28
145.98
148.86
151.68
150.97
143.48
127.47
103.26
72.96
39.64
6.42
-24.18
-50.64
-72.38
-89.48
-102.31
-111.07
-115.75
-116.35
-113.24
-107.31
-99.93
-92.51
-85.99
-80.69
-76.25
-72.02
-67.42
-62.27
-56.70
-51.11
-45.83
-40.97
-36.59
-32.87
-30.13
-28.82
-29.21
-31.09
-33.70
-35.99
-37.11
-36.96
-36.28
-36.33
-38.13
-41.83
-46.52
-50.62
-52.72
-52.26
-49.78
-46.66
-44.31
-43.58
-44.35
-45.76
-46.79
-46.82
-45.91
-44.74
-44.14
-44.72
-46.68
-49.80
-53.66
-57.79
-61.84
-65.40
-68.13
-69.67
-69.89
-69.03
-67.71
-66.78
-66.90
-68.35
-70.68
-73.06
-74.43
-74.01
-71.41
-66.62
-59.92
-51.81
-43.00
-34.31
-26.63
-20.61
-16.33
-13.21
-10.19
-6.21
-0.80
5.72
12.44
18.32
22.80
26.04
28.79
31.88
35.70
40.09
44.41
48.00
50.51
52.11
53.37
54.95
57.35
60.71
64.83
69.14
72.99
75.80
77.22
77.28
76.08
73.63
69.60
63.28
53.86
40.70
23.53
2.56
-21.52
-47.61
-73.94
-98.01
-116.70
-126.96
-126.87
-116.57
-98.55
-76.82
-55.46
-37.26
-23.15
-12.63
-4.66
1.53
6.38
10.28
14.09
19.03
26.16
35.78
47.09
58.57
68.73
76.87
83.26
88.83
94.60
101.29
109.16
118.10
127.74
137.51
146.46
153.40
157.24
157.63
155.23
151.69
148.65
146.76
144.99
140.85
131.42
114.84
91.31
63.04
33.34
5.16
-19.98
-42.32
-63.52
-85.84
-111.19
-140.18
-171.65
-202.52
-228.48
-245.40
-250.85
-245.02
-230.60
-211.67
-192.19
-174.89
-160.86
-149.87
-141.04
-133.21
-125.16
-115.69
-103.89
-89.50
-73.37
-57.23
-43.20
-32.97
-27.11
-24.92
-24.75
-24.73
-23.40
-20.15
-15.24
-9.42
-3.56
1.78
6.44
10.51
14.12
17.31
19.96
22.00
23.58
24.97
26.47
28.17
29.93
31.41
32.31
32.44
31.72
30.22
27.94
24.99
21.67
18.50
16.11
15.02
15.34
16.59
17.92
18.41
17.48
15.18
12.14
9.30
7.54
7.35
8.57
10.60
12.57
13.82
14.14
13.81
13.46
13.64
14.54
15.96
17.49
18.84
20.04
21.37
23.00
24.70
25.87
25.83
24.42
22.25
20.50
20.31
22.23
25.67
29.10
30.33
26.96
16.48
-3.44
-34.34
-76.16
-126.65
-181.50
-235.00
-281.56
-316.95
-338.83
-346.65
-341.26
-324.98
-301.93
-278.15
-260.63
-255.19
-264.04
-284.18
-308.16
-326.67
-332.12
-321.30
-295.83
-260.47
-220.48
-179.54
-138.94
-98.39
-57.46
-16.52
23.36
61.20
97.05
132.37
169.58
210.97
257.32
307.39
358.09
405.53
446.27
478.14
500.47
513.69
518.83
517.04
509.55
497.54
482.06
463.67
442.10
416.49
385.90
350.05
309.79
266.95
223.78
182.32
144.06
109.99
80.75
56.71
37.81
23.28
11.66
1.00
-10.49
-23.80
-38.74
-54.07
-68.07
-79.29
-87.18
-92.22
-95.62
-98.68
-102.19
-106.27
-110.44
-114.12
-116.94
-118.72
-119.34
-118.44
-115.56
-110.33
-102.88
-93.96
-84.77
-76.58
-70.34
-66.49
-65.01
-65.51
-67.31
-69.58
-71.39
-71.90
-70.63
-67.57
-63.09
-57.79
-52.19
-46.63
-41.30
-36.41
-32.29
-29.36
-27.85
-27.72
-28.60
-29.95
-31.37
-32.70
-33.95
-35.11
-35.93
-35.98
-34.83
-32.26
-28.34
-23.46
-18.20
-13.20
-8.99
-6.04
-4.52
-4.32
-4.98
-5.80
-6.23
-6.08
-5.66
-5.47
-5.96
-7.16
-8.63
-9.80
-10.18
-9.69
-8.58
-7.27
-6.11
-5.27
-4.73
-4.51
-4.65
-5.21
-6.13
-7.08
-7.53
-6.92
-4.93
-1.61
2.62
7.12
11.32
14.83
17.47
19.15
19.79
19.22
17.40
14.45
10.75
6.87
3.29
0.38
-1.76
-3.15
-3.84
-3.89
-3.44
-2.75
-2.20
-2.18
-2.90
-4.32
-6.20
-8.23
-10.18
-11.92
-13.47
-14.90
-16.30
-17.70
-19.04
-20.26
-21.17
-21.66
-21.58
-20.93
-19.78
-18.27
-16.49
-14.40
-11.96
-9.10
-5.95
-2.72
0.28
2.78
4.63
5.88
6.71
7.24
7.60
7.79
7.81
7.73
7.68
7.83
8.26
8.91
9.56
9.92
9.79
9.16
8.17
7.04
5.99
5.09
4.22
3.21
1.88
0.21
-1.68
-3.51
-5.03
-6.02
-6.40
-6.14
-5.22
-3.61
-1.28
1.68
5.01
8.33
11.25
13.46
14.84
15.50
15.61
15.36
14.94
14.46
13.97
13.48
12.97
12.43
11.94
11.59
11.51
11.80
12.42
13.18
13.86
14.17
13.91
13.00
11.41
9.20
6.48
3.41
0.24
-2.77
-5.38
-7.52
-9.22
-10.63
-11.81
-12.65
-12.95
-12.56
-11.47
-9.89
-8.11
-6.35
-4.67
-2.97
-1.16
0.74
2.63
4.38
5.99
7.52
9.10
10.72
12.27
13.61
14.64
15.43
16.04
16.53
16.86
16.99
16.92
16.71
16.45
16.09
15.48
14.38
12.69
10.45
